Sequence,Volt
0,1.708
1,1.705667
2,1.704667
3,1.701667
4,1.694667
5,1.690667
6,1.694333
7,1.679333
8,1.651333
9,1.647333
10,1.649333
11,1.624667
12,1.638333
13,1.697667
14,1.723
15,1.723
16,1.717
17,1.710333
18,1.719333
19,1.731333
20,1.714
21,1.583667
22,1.379
23,1.444
24,1.648333
25,1.703
26,1.713333
27,1.718333
28,1.726
29,1.715
30,1.741
31,1.734
32,1.706667
33,1.732
34,1.721667
35,1.714667
36,1.716667
37,1.714
38,1.718
39,1.721333
40,1.715
41,1.703333
42,1.686
43,1.679667
44,1.691333
45,1.695
46,1.657
47,1.630667
48,1.636667
49,1.601333
50,1.592667
51,1.600667
52,1.614
53,1.640333
54,1.648
55,1.660667
56,1.679
57,1.716667
58,1.73
59,1.725667
60,1.738333
61,1.735
62,1.724
63,1.741333
64,1.741
65,1.734333
66,1.737333
67,1.726
68,1.729667
69,1.708667
70,1.717667
71,1.737667
72,1.721
73,1.73
74,1.711
75,1.715333
76,1.726
77,1.714667
78,1.735333
79,1.723667
80,1.726667
81,1.742
82,1.730333
83,1.738
84,1.742
85,1.738333
86,1.737
87,1.735
88,1.730667
89,1.726667
90,1.713333
91,1.708667
92,1.709667
93,1.704333
94,1.728667
95,1.729333
96,1.721333
97,1.715333
98,1.712667
99,1.711333
100,1.662667
101,1.668667
102,1.690333
103,1.677667
104,1.671667
105,1.686
106,1.712333
107,1.724667
108,1.737333
109,1.728333
110,1.726
111,1.737
112,1.740333
113,1.701333
114,1.509667
115,1.375667
116,1.527333
117,1.682667
118,1.719667
119,1.719333
120,1.712333
121,1.734667
122,1.735333
123,1.724
124,1.726333
125,1.728667
126,1.723
127,1.733
128,1.737333
129,1.719333
130,1.718333
131,1.726667
132,1.727
133,1.723333
134,1.709333
135,1.699667
136,1.686333
137,1.674
138,1.689
139,1.680333
140,1.636333
141,1.612
142,1.602
143,1.580333
144,1.583667
145,1.599333
146,1.622333
147,1.655667
148,1.67
149,1.683667
150,1.695667
151,1.706333
152,1.709667
153,1.712333
154,1.713333
155,1.712667
156,1.722
157,1.716333
158,1.713333
159,1.718333
160,1.717333
161,1.724
162,1.736
163,1.732333
164,1.711333
165,1.718333
166,1.708
167,1.693
168,1.712
169,1.700667
170,1.699333
171,1.706
172,1.701
173,1.712667
174,1.709
175,1.690667
176,1.693
177,1.695667
178,1.692333
179,1.699
180,1.688
181,1.683333
182,1.695667
183,1.698667
184,1.688
185,1.687333
186,1.702
187,1.693
188,1.700333
189,1.714
190,1.703333
191,1.702
192,1.676333
193,1.644
194,1.637333
195,1.634
196,1.640667
197,1.642667
198,1.65
199,1.669333
200,1.683
201,1.708
202,1.698333
203,1.695333
204,1.709
205,1.701333
206,1.651
207,1.435667
208,1.349333
209,1.534
210,1.66
211,1.704333
212,1.702333
213,1.686667
214,1.712
215,1.707
216,1.705667
217,1.711333
218,1.712667
219,1.697333
220,1.652667
221,1.668667
222,1.696333
223,1.677333
224,1.668
225,1.679333
226,1.683
227,1.677333
228,1.684333
229,1.672333
230,1.656667
231,1.624667
232,1.608333
233,1.621667
234,1.570333
235,1.552667
236,1.554667
237,1.554667
238,1.581
239,1.599
240,1.617667
241,1.639
242,1.685
243,1.676333
244,1.673333
245,1.685333
246,1.662667
247,1.668333
248,1.676667
249,1.689
250,1.677667
251,1.681667
252,1.689
253,1.676
254,1.696
255,1.704333
256,1.694667
257,1.667333
258,1.648
259,1.655333
260,1.661667
261,1.673667
262,1.663667
263,1.654
264,1.682
265,1.674667
266,1.679667
267,1.704333
268,1.681333
269,1.668667
270,1.657667
271,1.667
272,1.679
273,1.661333
274,1.673667
275,1.676667
276,1.674333
277,1.669333
278,1.654333
279,1.659667
280,1.666
281,1.670667
282,1.651333
283,1.653
284,1.633
285,1.623667
286,1.643667
287,1.601667
288,1.604333
289,1.575667
290,1.561
291,1.635
292,1.659
293,1.646
294,1.637667
295,1.643667
296,1.655
297,1.662333
298,1.656333
299,1.506333
300,1.299667
301,1.403333
302,1.622667
303,1.667
304,1.665
305,1.669667
306,1.662667
307,1.655
308,1.642
309,1.630333
310,1.639333
311,1.646333
312,1.65
313,1.655333
314,1.661333
315,1.652
316,1.635333
317,1.635667
318,1.629
319,1.628333
320,1.637667
321,1.634667
322,1.597
323,1.564
324,1.567
325,1.570667
326,1.564667
327,1.516
328,1.501667
329,1.532
330,1.544
331,1.575667
332,1.623
333,1.644333
334,1.618333
335,1.625333
336,1.638
337,1.635333
338,1.646
339,1.628
340,1.618
341,1.623333
342,1.632333
343,1.636
344,1.65
345,1.663
346,1.652667
347,1.665667
348,1.657
349,1.624
350,1.623667
351,1.628333
352,1.643667
353,1.65
354,1.655
355,1.643
356,1.615667
357,1.613
358,1.613667
359,1.629667
360,1.636667
361,1.649333
362,1.636
363,1.623
364,1.652667
365,1.654
366,1.639667
367,1.636667
368,1.644
369,1.647
370,1.653
371,1.638
372,1.625
373,1.620333
374,1.618333
375,1.658333
376,1.630667
377,1.604
378,1.610333
379,1.579667
380,1.584333
381,1.585
382,1.587333
383,1.602
384,1.639
385,1.645667
386,1.643667
387,1.663667
388,1.65
389,1.667333
390,1.655333
391,1.635333
392,1.485667
393,1.291333
394,1.424
395,1.586
396,1.602667
397,1.631333
398,1.636
399,1.666667
400,1.671333
401,1.643333
402,1.665333
403,1.669
404,1.648667
405,1.640667
406,1.650333
407,1.657667
408,1.656667
409,1.660667
410,1.66
411,1.635
412,1.622
413,1.635667
414,1.627
415,1.628
416,1.619333
417,1.608333
418,1.580667
419,1.539333
420,1.549667
421,1.533
422,1.520333
423,1.549667
424,1.578333
425,1.590667
426,1.600667
427,1.633667
428,1.639667
429,1.630667
430,1.665667
431,1.663667
432,1.633333
433,1.649667
434,1.647
435,1.65
436,1.673
437,1.664333
438,1.659
439,1.663
440,1.653333
441,1.642667
442,1.656333
443,1.659667
444,1.631667
445,1.656667
446,1.66
447,1.624
448,1.646
449,1.668
450,1.652
451,1.636667
452,1.649333
453,1.658333
454,1.675667
455,1.668333
456,1.637667
457,1.648
458,1.664333
459,1.65
460,1.632667
461,1.64
462,1.655
463,1.668333
464,1.665667
465,1.661
466,1.668667
467,1.669333
468,1.669
469,1.649667
470,1.626667
471,1.641667
472,1.634333
473,1.607667
474,1.585667
475,1.575
476,1.572
477,1.561
478,1.604333
479,1.643667
480,1.662
481,1.665333
482,1.672667
483,1.686667
484,1.653667
485,1.658
486,1.576333
487,1.372667
488,1.353667
489,1.54
490,1.652667
491,1.669667
492,1.678667
493,1.673333
494,1.651667
495,1.633
496,1.674667
497,1.675667
498,1.623667
499,1.654
500,1.694667
501,1.674
502,1.652
503,1.665333
504,1.674667
505,1.665
506,1.655
507,1.663333
508,1.649333
509,1.617333
510,1.616667
511,1.586333
512,1.593333
513,1.598
514,1.543333
515,1.524333
516,1.531667
517,1.538667
518,1.543667
519,1.589
520,1.620667
521,1.624333
522,1.641667
523,1.659
524,1.677
525,1.673667
526,1.676333
527,1.673
528,1.664333
529,1.689333
530,1.688667
531,1.694667
532,1.694667
533,1.655
534,1.680333
535,1.687333
536,1.677
537,1.697667
538,1.691333
539,1.678333
540,1.668
541,1.665667
542,1.654
543,1.652333
544,1.658
545,1.653667
546,1.662
547,1.670333
548,1.669
549,1.666
550,1.659
551,1.675
552,1.682667
553,1.670667
554,1.686667
555,1.678
556,1.678667
557,1.684667
558,1.668333
559,1.670333
560,1.670667
561,1.67
562,1.667667
563,1.662667
564,1.655
565,1.656333
566,1.666667
567,1.643333
568,1.614667
569,1.601667
570,1.585333
571,1.597667
572,1.602667
573,1.626667
574,1.668667
575,1.667
576,1.672333
577,1.680667
578,1.694
579,1.698667
580,1.705333
581,1.626667
582,1.417333
583,1.339333
584,1.516
585,1.659667
586,1.647333
587,1.670333
588,1.683667
589,1.668667
590,1.664
591,1.669
592,1.692
593,1.686
594,1.688333
595,1.681
596,1.671
597,1.675
598,1.676667
599,1.674667
600,1.658333
601,1.661
602,1.663667
603,1.664667
604,1.662333
605,1.64
606,1.632
607,1.608333
608,1.570333
609,1.561333
610,1.552667
611,1.545333
612,1.559333
613,1.569667
614,1.594667
615,1.607
616,1.627333
617,1.663
618,1.672
619,1.686333
620,1.687333
621,1.683
622,1.679333
623,1.678667
624,1.679667
625,1.679667
626,1.678667
627,1.678333
628,1.696
629,1.703333
630,1.698667
631,1.69
632,1.673
633,1.665
634,1.663
635,1.656333
636,1.657
637,1.672667
638,1.687667
639,1.667
640,1.667
641,1.681667
642,1.667667
643,1.676333
644,1.677333
645,1.670333
646,1.675
647,1.686667
648,1.685333
649,1.676667
650,1.684
651,1.673
652,1.666333
653,1.664333
654,1.661333
655,1.680667
656,1.684667
657,1.682
658,1.694333
659,1.686667
660,1.683333
661,1.682333
662,1.668333
663,1.664333
664,1.660333
665,1.655333
666,1.612667
667,1.588
668,1.597333
669,1.603667
670,1.662
671,1.693333
672,1.697667
673,1.699333
674,1.689667
675,1.695
676,1.671
677,1.648
678,1.489333
679,1.319
680,1.451333
681,1.631333
682,1.663
683,1.666667
684,1.674667
685,1.673667
686,1.668667
687,1.666
688,1.661
689,1.659333
690,1.655667
691,1.660667
692,1.682333
693,1.679
694,1.667667
695,1.667667
696,1.663
697,1.657333
698,1.649667
699,1.644333
700,1.643667
701,1.630667
702,1.599667
703,1.585667
704,1.588
705,1.574667
706,1.553333
707,1.534333
708,1.547
709,1.569667
710,1.580667
711,1.589333
712,1.62
713,1.653667
714,1.652333
715,1.670333
716,1.674667
717,1.666
718,1.676333
719,1.676333
720,1.681667
721,1.694
722,1.693667
723,1.689667
724,1.688333
725,1.684333
726,1.690667
727,1.694
728,1.687667
729,1.686667
730,1.677333
731,1.659
732,1.660667
733,1.675
734,1.679
735,1.682667
736,1.681667
737,1.685333
738,1.687667
739,1.669333
740,1.679667
741,1.686667
742,1.679667
743,1.69
744,1.687
745,1.687667
746,1.687
747,1.681
748,1.672333
749,1.669
750,1.670333
751,1.688667
752,1.696333
753,1.678333
754,1.686
755,1.674667
756,1.666667
757,1.655
758,1.645333
759,1.646333
760,1.619
761,1.612333
762,1.600667
763,1.607667
764,1.645667
765,1.670333
766,1.686
767,1.682667
768,1.674667
769,1.695667
770,1.699
771,1.67
772,1.555
773,1.365
774,1.421667
775,1.615333
776,1.681333
777,1.696333
778,1.683
779,1.681667
780,1.679667
781,1.661333
782,1.662333
783,1.679333
784,1.681667
785,1.677
786,1.674
787,1.663333
788,1.680667
789,1.690667
790,1.686
791,1.69
792,1.669333
793,1.651333
794,1.656333
795,1.649667
796,1.604667
797,1.608667
798,1.614667
799,1.559333
800,1.572333
801,1.565
802,1.532667
803,1.564667
804,1.583667
805,1.612
806,1.649333
807,1.645333
808,1.667333
809,1.687333
810,1.670333
811,1.682667
812,1.668333
813,1.670667
814,1.706667
815,1.700667
816,1.682333
817,1.66
818,1.686333
819,1.689667
820,1.668
821,1.695667
822,1.674667
823,1.659
824,1.675
825,1.672333
826,1.665667
827,1.663333
828,1.65
829,1.648667
830,1.670333
831,1.668333
832,1.665667
833,1.654333
834,1.658
835,1.668333
836,1.666333
837,1.670667
838,1.657333
839,1.655
840,1.654
841,1.654
842,1.655
843,1.654333
844,1.656667
845,1.645
846,1.638
847,1.653667
848,1.654667
849,1.630667
850,1.627333
851,1.608
852,1.6
853,1.603
854,1.592667
855,1.634
856,1.665333
857,1.648333
858,1.654333
859,1.673667
860,1.666333
861,1.67
862,1.661
863,1.578667
864,1.383
865,1.351
866,1.567667
867,1.65
868,1.670333
869,1.693667
870,1.672
871,1.673667
872,1.661667
873,1.658
874,1.657333
875,1.65
876,1.654667
877,1.671333
878,1.661333
879,1.661667
880,1.659667
881,1.649667
882,1.648333
883,1.637667
884,1.658
885,1.647
886,1.644667
887,1.629667
888,1.590333
889,1.582333
890,1.555333
891,1.531
892,1.509
893,1.527
894,1.529667
895,1.538333
896,1.583333
897,1.61
898,1.625
899,1.613667
900,1.637333
901,1.655
902,1.644667
903,1.640667
904,1.645333
905,1.668
906,1.659333
907,1.655
908,1.653667
909,1.644333
910,1.665
911,1.674667
912,1.670333
913,1.667667
914,1.666
915,1.640667
916,1.623
917,1.628667
918,1.64
919,1.64
920,1.629
921,1.651
922,1.657667
923,1.657
924,1.659667
925,1.642667
926,1.642
927,1.658
928,1.661
929,1.658333
930,1.657
931,1.645333
932,1.643333
933,1.645667
934,1.647333
935,1.644
936,1.628667
937,1.646
938,1.667
939,1.657
940,1.652
941,1.646667
942,1.646
943,1.639667
944,1.637
945,1.621667
946,1.585
947,1.586667
948,1.583667
949,1.561667
950,1.558333
951,1.575
952,1.596667
953,1.612333
954,1.635667
955,1.642
956,1.648667
957,1.664333
958,1.663333
959,1.610333
960,1.415667
961,1.277
962,1.45
963,1.618333
964,1.621667
965,1.644
966,1.61
967,1.615333
968,1.666
969,1.646
970,1.645
971,1.626667
972,1.619667
973,1.631667
974,1.616667
975,1.641667
976,1.656667
977,1.655
978,1.656333
979,1.635333
980,1.634333
981,1.631333
982,1.624
983,1.602
984,1.588333
985,1.579667
986,1.551333
987,1.534333
988,1.502333
989,1.506
990,1.521
991,1.534667
992,1.580667
993,1.591
994,1.606667
995,1.605333
996,1.613
997,1.627
998,1.62
999,1.653
