Time(s),RA(V),LA(V),LL(V),RL(V),V1(V),V2(V),V3(V),V4(V),V5(V),V6(V),WCT(V)
0.0000,2045.973604,2048.529302,2048.167690,2047.500000,2046.786280,2053.326801,2052.544694,2051.147486,2050.555460,2050.647843,2047.557777
0.0013,2045.991102,2048.049741,2048.049340,2047.500000,2046.565167,2052.062970,2051.799080,2050.731389,2050.226820,2050.267159,2047.362781
0.0025,2046.001871,2047.584800,2047.924087,2047.500000,2046.370644,2050.876676,2051.077061,2050.368411,2049.924827,2049.908868,2047.170674
0.0037,2046.004563,2047.154950,2047.790943,2047.500000,2046.220902,2049.802807,2050.392795,2050.093965,2049.676127,2049.572970,2046.982900
0.0050,2045.996487,2046.760190,2047.648923,2047.500000,2046.115944,2048.818105,2049.779315,2049.908049,2049.485161,2049.253067,2046.802349
0.0063,2045.978988,2046.400519,2047.502959,2047.500000,2046.048770,2047.887678,2049.255497,2049.766399,2049.356370,2048.942762,2046.627575
0.0075,2045.952068,2046.073014,2047.355022,2047.500000,2046.012384,2046.999895,2048.830780,2049.615896,2049.289753,2048.654849,2046.460023
0.0088,2045.922455,2045.771826,2047.209057,2047.500000,2046.020781,2046.174141,2048.472130,2049.398995,2049.263107,2048.424519,2046.299693
0.0100,2045.890150,2045.494032,2047.069010,2047.500000,2046.096351,2045.441430,2048.141795,2049.102415,2049.258666,2048.274165,2046.150919
0.0112,2045.860538,2045.251327,2046.941784,2047.500000,2046.264285,2044.813391,2047.797302,2048.765996,2049.236460,2048.184592,2046.018033
0.0125,2045.837655,2045.040788,2046.832310,2047.500000,2046.518985,2044.255135,2047.415057,2048.438431,2049.156521,2048.111014,2045.903924
0.0138,2045.826887,2044.865339,2046.745520,2047.500000,2046.818468,2043.720139,2047.013935,2048.146278,2048.978878,2047.992650,2045.812926
0.0150,2045.828233,2044.722055,2046.684373,2047.500000,2047.084363,2043.177390,2046.617532,2047.880684,2048.712414,2047.810306,2045.745039
0.0163,2045.847077,2044.602165,2046.645909,2047.500000,2047.249498,2042.623011,2046.254163,2047.606237,2048.383774,2047.586374,2045.698817
0.0175,2045.884766,2044.505668,2046.628157,2047.500000,2047.285884,2042.095768,2045.928547,2047.331791,2048.046252,2047.372039,2045.672818
0.0187,2045.941299,2044.429640,2046.630129,2047.500000,2047.221509,2041.638308,2045.621807,2047.088330,2047.748700,2047.199291,2045.667040
0.0200,2046.016677,2044.371157,2046.646895,2047.500000,2047.120749,2041.281645,2045.315067,2046.924547,2047.517764,2047.068131,2045.678596
0.0213,2046.108207,2044.333143,2046.678455,2047.500000,2047.036782,2041.029654,2045.003608,2046.844869,2047.353445,2046.952966,2045.706039
0.0225,2046.215889,2044.309750,2046.717905,2047.500000,2046.997597,2040.866829,2044.706306,2046.805030,2047.246859,2046.828204,2045.747927
0.0238,2046.332994,2044.300978,2046.759328,2047.500000,2046.996198,2040.758279,2044.437319,2046.729778,2047.171360,2046.703442,2045.797037
0.0250,2046.455482,2044.300978,2046.796805,2047.500000,2047.017190,2040.676867,2044.191926,2046.565996,2047.095862,2046.588277,2045.850481
0.0262,2046.579317,2044.306826,2046.822448,2047.500000,2047.053575,2040.607085,2043.965411,2046.326961,2046.980394,2046.479510,2045.902480
0.0275,2046.696421,2044.312674,2046.830338,2047.500000,2047.112352,2040.541180,2043.724738,2046.061368,2046.789428,2046.348350,2045.947256
0.0288,2046.801411,2044.315598,2046.816530,2047.500000,2047.190721,2040.483028,2043.460469,2045.831187,2046.522963,2046.172403,2045.977589
0.0300,2046.891595,2044.309750,2046.777080,2047.500000,2047.269091,2040.424876,2043.182044,2045.654124,2046.212088,2045.951670,2045.993478
0.0312,2046.960243,2044.298053,2046.711988,2047.500000,2047.329267,2040.343464,2042.927214,2045.516901,2045.918977,2045.730938,2045.990589
0.0325,2047.006008,2044.280508,2046.624212,2047.500000,2047.361454,2040.203900,2042.724293,2045.392957,2045.683600,2045.567787,2045.970367
0.0338,2047.027544,2044.257115,2046.516711,2047.500000,2047.389443,2039.998430,2042.587440,2045.282293,2045.528163,2045.481413,2045.934257
0.0350,2047.024852,2044.230798,2046.393430,2047.500000,2047.438424,2039.761947,2042.502497,2045.211468,2045.430459,2045.443025,2045.883702
0.0362,2047.000624,2044.201556,2046.259300,2047.500000,2047.515394,2039.560354,2042.450587,2045.202615,2045.354961,2045.395040,2045.820148
0.0375,2046.958897,2044.172315,2046.120239,2047.500000,2047.592364,2039.451804,2042.417553,2045.260160,2045.283903,2045.305467,2045.750816
0.0387,2046.907748,2044.145997,2045.983151,2047.500000,2047.632948,2039.463435,2042.393958,2045.330985,2045.212846,2045.190302,2045.680040
0.0400,2046.852560,2044.131377,2045.858883,2047.500000,2047.630149,2039.560354,2042.403396,2045.370824,2045.141789,2045.103928,2045.615041
0.0413,2046.802757,2044.137225,2045.756313,2047.500000,2047.621752,2039.688288,2042.455306,2045.353118,2045.070732,2045.081535,2045.565931
0.0425,2046.767761,2044.166467,2045.681359,2047.500000,2047.663736,2039.820098,2042.540249,2045.286720,2044.990792,2045.116724,2045.538488
0.0437,2046.752954,2044.227874,2045.641909,2047.500000,2047.772893,2039.963539,2042.620474,2045.193762,2044.893089,2045.161511,2045.541376
0.0450,2046.766415,2044.321447,2045.640922,2047.500000,2047.900243,2040.145748,2042.648788,2045.096378,2044.795385,2045.187103,2045.577487
0.0462,2046.814872,2044.453033,2045.678400,2047.500000,2047.963218,2040.362848,2042.587440,2045.007846,2044.702122,2045.199899,2045.648263
0.0475,2046.901017,2044.619710,2045.752368,2047.500000,2047.903042,2040.564440,2042.455306,2044.937021,2044.626624,2045.235088,2045.758038
0.0488,2047.026198,2044.818552,2045.859870,2047.500000,2047.740705,2040.680744,2042.323172,2044.897182,2044.568890,2045.327860,2045.901035
0.0500,2047.190414,2045.046636,2045.995972,2047.500000,2047.551780,2040.692374,2042.257105,2044.901609,2044.524479,2045.455821,2046.077254
0.0512,2047.393664,2045.298113,2046.153771,2047.500000,2047.407636,2040.645853,2042.271262,2044.950301,2044.502274,2045.574185,2046.280916
0.0525,2047.629219,2045.570060,2046.328337,2047.500000,2047.315273,2040.649729,2042.337329,2044.990140,2044.506715,2045.612574,2046.509133
0.0537,2047.891694,2045.859551,2046.510793,2047.500000,2047.236903,2040.781540,2042.393958,2044.954728,2044.551126,2045.554991,2046.753239
0.0550,2048.175706,2046.151966,2046.693249,2047.500000,2047.134743,2041.056791,2042.408115,2044.804225,2044.631065,2045.436627,2047.007455
0.0563,2048.471832,2046.444381,2046.865843,2047.500000,2047.033983,2041.405702,2042.408115,2044.560764,2044.724328,2045.311865,2047.261672
0.0575,2048.773343,2046.725100,2047.020683,2047.500000,2047.008793,2041.719721,2042.460025,2044.304023,2044.813149,2045.235088,2047.505778
0.0587,2049.068123,2046.988273,2047.151854,2047.500000,2047.106754,2041.929067,2042.596878,2044.113681,2044.875324,2045.203098,2047.735439
0.0600,2049.350789,2047.225130,2047.256397,2047.500000,2047.285884,2042.033740,2042.766765,2044.025150,2044.901971,2045.187103,2047.944879
0.0612,2049.611918,2047.441517,2047.331352,2047.500000,2047.424430,2042.084138,2042.870585,2044.003017,2044.879765,2045.158312,2048.128320
0.0625,2049.844781,2047.628663,2047.376719,2047.500000,2047.416033,2042.146167,2042.828113,2043.998590,2044.808708,2045.113525,2048.284316
0.0638,2050.043993,2047.789491,2047.393485,2047.500000,2047.253697,2042.246963,2042.667664,2043.985311,2044.711005,2045.094331,2048.408536
0.0650,2050.202824,2047.918154,2047.381650,2047.500000,2047.057774,2042.367143,2042.502497,2043.998590,2044.631065,2045.145515,2048.500978
0.0663,2050.318583,2048.020499,2047.343187,2047.500000,2046.993399,2042.464063,2042.469463,2044.087122,2044.613301,2045.273477,2048.560199
0.0675,2050.388576,2048.093603,2047.279080,2047.500000,2047.152936,2042.522214,2042.611035,2044.246478,2044.675476,2045.436627,2048.587643
0.0688,2050.415497,2048.137465,2047.193277,2047.500000,2047.493003,2042.560982,2042.865866,2044.405834,2044.786503,2045.554991,2048.581865
0.0700,2050.399345,2048.155010,2047.086762,2047.500000,2047.877852,2042.623011,2043.115977,2044.472232,2044.875324,2045.558190,2048.547199
0.0712,2050.342811,2048.149162,2046.965454,2047.500000,2048.177334,2042.735437,2043.266987,2044.392554,2044.875324,2045.436627,2048.485089
0.0725,2050.252628,2048.122844,2046.833296,2047.500000,2048.341070,2042.875001,2043.323616,2044.215492,2044.773180,2045.244685,2048.402758
0.0737,2050.135523,2048.078982,2046.693249,2047.500000,2048.401246,2042.991305,2043.333054,2044.056136,2044.599978,2045.065540,2048.301649
0.0750,2049.995536,2048.020499,2046.547284,2047.500000,2048.405444,2043.049456,2043.342492,2044.007444,2044.413453,2044.975967,2048.187540
0.0762,2049.842089,2047.947395,2046.398361,2047.500000,2048.371858,2043.064963,2043.347212,2044.064989,2044.262456,2044.979166,2048.063321
0.0775,2049.683258,2047.862595,2046.247465,2047.500000,2048.283692,2043.115362,2043.309459,2044.157947,2044.155870,2045.027151,2047.930435
0.0788,2049.525772,2047.763174,2046.097555,2047.500000,2048.142348,2043.270433,2043.205639,2044.188933,2044.093695,2045.055943,2047.796105
0.0800,2049.375017,2047.660828,2045.950604,2047.500000,2047.992607,2043.526300,2043.087662,2044.126961,2044.084813,2045.020753,2047.663219
0.0813,2049.237722,2047.558483,2045.811543,2047.500000,2047.912838,2043.820936,2043.031033,2044.011870,2044.146988,2044.927982,2047.536110
0.0825,2049.119272,2047.459062,2045.682345,2047.500000,2047.952022,2044.053542,2043.106539,2043.914486,2044.271338,2044.803219,2047.420557
0.0838,2049.021012,2047.368413,2045.565968,2047.500000,2048.090568,2044.173723,2043.300021,2043.852514,2044.417894,2044.672059,2047.319448
0.0850,2048.946980,2047.292385,2045.464384,2047.500000,2048.247306,2044.212490,2043.521817,2043.759556,2044.506715,2044.524904,2047.234228
0.0862,2048.895831,2047.236826,2045.378580,2047.500000,2048.331274,2044.239628,2043.672828,2043.560361,2044.471187,2044.342559,2047.170674
0.0875,2048.867565,2047.204661,2045.309543,2047.500000,2048.303285,2044.313287,2043.686985,2043.232795,2044.306867,2044.118627,2047.127342
0.0887,2048.860834,2047.198812,2045.257272,2047.500000,2048.181532,2044.421837,2043.587885,2042.856538,2044.053725,2043.891497,2047.105675
0.0900,2048.875641,2047.219281,2045.223740,2047.500000,2048.024794,2044.534263,2043.451031,2042.573238,2043.800584,2043.737943,2047.107120
0.0912,2048.907945,2047.271916,2045.209932,2047.500000,2047.894645,2044.623429,2043.370807,2042.506839,2043.618500,2043.734744,2047.130230
0.0925,2048.956402,2047.356717,2045.215850,2047.500000,2047.827471,2044.712595,2043.413279,2042.675049,2043.543002,2043.891497,2047.176452
0.0938,2049.018320,2047.470758,2045.240506,2047.500000,2047.851262,2044.844406,2043.583165,2042.998188,2043.582971,2044.150618,2047.242895
0.0950,2049.091005,2047.608194,2045.283901,2047.500000,2047.970215,2045.030491,2043.842715,2043.330180,2043.720645,2044.387346,2047.328115
0.0963,2049.170421,2047.760250,2045.341103,2047.500000,2048.177334,2045.204946,2044.097545,2043.560361,2043.920493,2044.505710,2047.424891
0.0975,2049.256567,2047.918154,2045.411127,2047.500000,2048.430634,2045.278605,2044.272151,2043.644466,2044.115901,2044.464123,2047.527444
0.0988,2049.344059,2048.067286,2045.491013,2047.500000,2048.669941,2045.201069,2044.319342,2043.604627,2044.231368,2044.300972,2047.634330
0.1000,2049.432896,2048.201797,2045.576816,2047.500000,2048.842073,2044.991723,2044.248555,2043.498389,2044.209163,2044.109030,2047.736884
0.1013,2049.517696,2048.312914,2045.666565,2047.500000,2048.931638,2044.751363,2044.121140,2043.370019,2044.049284,2043.961875,2047.832215
0.1025,2049.597112,2048.391866,2045.759272,2047.500000,2048.968023,2044.576908,2044.022040,2043.246075,2043.818348,2043.891497,2047.915991
0.1037,2049.668451,2048.432805,2045.850993,2047.500000,2049.008608,2044.507126,2043.984287,2043.153117,2043.618500,2043.891497,2047.983878
0.1050,2049.727677,2048.426956,2045.938769,2047.500000,2049.089776,2044.507126,2043.998444,2043.113278,2043.529679,2043.917089,2048.031544
0.1062,2049.773442,2048.380170,2046.020628,2047.500000,2049.210128,2044.511002,2044.031478,2043.161970,2043.569648,2043.949079,2048.057543
0.1075,2049.801708,2048.286597,2046.093610,2047.500000,2049.336079,2044.499372,2044.040916,2043.325753,2043.707322,2043.977870,2048.060432
0.1087,2049.811130,2048.155010,2046.156730,2047.500000,2049.427043,2044.503249,2044.040916,2043.591347,2043.898288,2044.019458,2048.040210
0.1100,2049.799016,2047.991258,2046.208015,2047.500000,2049.471826,2044.576908,2044.069230,2043.910059,2044.111459,2044.070642,2047.998322
0.1113,2049.764019,2047.804112,2046.247465,2047.500000,2049.480222,2044.731979,2044.140017,2044.206639,2044.320190,2044.131424,2047.939101
0.1125,2049.704794,2047.608194,2046.278039,2047.500000,2049.473225,2044.933572,2044.234398,2044.396981,2044.502274,2044.182608,2047.863992
0.1138,2049.621340,2047.415200,2046.299736,2047.500000,2049.462029,2045.111903,2044.305184,2044.454526,2044.599978,2044.208200,2047.778772
0.1150,2049.515004,2047.236826,2046.313544,2047.500000,2049.445236,2045.228207,2044.314622,2044.419114,2044.573331,2044.205001,2047.687774
0.1163,2049.387131,2047.078922,2046.319461,2047.500000,2049.418646,2045.290235,2044.291027,2044.383701,2044.426776,2044.189006,2047.593887
0.1175,2049.240414,2046.947335,2046.319461,2047.500000,2049.387859,2045.367771,2044.295746,2044.432393,2044.226927,2044.179409,2047.501444
0.1187,2049.077545,2046.847914,2046.314530,2047.500000,2049.372465,2045.511212,2044.390128,2044.596176,2044.080372,2044.192205,2047.413335
0.1200,2048.906599,2046.786507,2046.308612,2047.500000,2049.392057,2045.720558,2044.569453,2044.835210,2044.071490,2044.240191,2047.333893
0.1212,2048.730270,2046.760190,2046.301709,2047.500000,2049.438239,2045.941534,2044.786530,2045.083098,2044.204722,2044.313768,2047.264561
0.1225,2048.553940,2046.768962,2046.298750,2047.500000,2049.473225,2046.096606,2044.961136,2045.291146,2044.409011,2044.393744,2047.208229
0.1237,2048.387033,2046.806976,2046.299736,2047.500000,2049.436839,2046.158634,2045.079113,2045.472635,2044.595537,2044.460923,2047.164896
0.1250,2048.232239,2046.868383,2046.306640,2047.500000,2049.285699,2046.158634,2045.192371,2045.667404,2044.719887,2044.524904,2047.136008
0.1263,2048.094944,2046.944411,2046.318475,2047.500000,2049.017004,2046.162511,2045.362258,2045.897585,2044.795385,2044.608079,2047.120119
0.1275,2047.981878,2047.026287,2046.336227,2047.500000,2048.688133,2046.220663,2045.607650,2046.118913,2044.888648,2044.729642,2047.115786
0.1288,2047.893040,2047.108164,2046.358911,2047.500000,2048.390050,2046.325336,2045.881356,2046.242857,2045.035203,2044.889593,2047.120119
0.1300,2047.831123,2047.178343,2046.385540,2047.500000,2048.205323,2046.410625,2046.088996,2046.207444,2045.230610,2045.046346,2047.131675
0.1313,2047.794780,2047.233902,2046.414141,2047.500000,2048.161940,2046.406748,2046.164501,2046.021529,2045.403812,2045.142316,2047.147563
0.1325,2047.782666,2047.271916,2046.444715,2047.500000,2048.220717,2046.305952,2046.107872,2045.769215,2045.501516,2045.126321,2047.166341
0.1338,2047.792088,2047.286537,2046.474302,2047.500000,2048.308882,2046.154757,2045.994614,2045.556740,2045.505957,2045.007957,2047.183674
0.1350,2047.814971,2047.280689,2046.499944,2047.500000,2048.360662,2046.057838,2045.909671,2045.441649,2045.465987,2044.864001,2047.198118
0.1363,2047.848621,2047.248523,2046.520656,2047.500000,2048.363461,2046.077222,2045.904952,2045.415090,2045.461546,2044.787224,2047.205340
0.1375,2047.886310,2047.190040,2046.534463,2047.500000,2048.352265,2046.209032,2045.971019,2045.428370,2045.545927,2044.851205,2047.203895
0.1388,2047.922653,2047.114012,2046.538408,2047.500000,2048.374656,2046.367980,2046.079558,2045.454929,2045.714688,2045.059142,2047.190896
0.1400,2047.952265,2047.020439,2046.535449,2047.500000,2048.457224,2046.484284,2046.211692,2045.512474,2045.910095,2045.353452,2047.169230
0.1412,2047.975148,2046.918094,2046.527559,2047.500000,2048.592971,2046.523051,2046.386298,2045.627565,2046.087738,2045.650962,2047.140341
0.1425,2047.985916,2046.812824,2046.516711,2047.500000,2048.759505,2046.546312,2046.603375,2045.800201,2046.220970,2045.910083,2047.105675
0.1437,2047.987262,2046.710479,2046.507834,2047.500000,2048.944233,2046.619971,2046.848767,2045.981690,2046.331997,2046.121219,2047.068121
0.1450,2047.977840,2046.619830,2046.504876,2047.500000,2049.154150,2046.790549,2047.061126,2046.096780,2046.460788,2046.306763,2047.034899
0.1462,2047.961688,2046.546726,2046.512766,2047.500000,2049.387859,2047.003772,2047.183822,2046.123340,2046.594021,2046.469913,2047.007455
0.1475,2047.942843,2046.497016,2046.535449,2047.500000,2049.613170,2047.166597,2047.193260,2046.096780,2046.687283,2046.594675,2046.991567
0.1487,2047.922653,2046.470698,2046.578844,2047.500000,2049.761512,2047.213118,2047.127193,2046.079074,2046.691724,2046.645860,2046.991567
0.1500,2047.907847,2046.476547,2046.644923,2047.500000,2049.760112,2047.158843,2047.046969,2046.123340,2046.594021,2046.620267,2047.010344
0.1512,2047.898424,2046.514561,2046.736644,2047.500000,2049.580983,2047.100692,2047.023373,2046.225151,2046.465229,2046.559486,2047.050788
0.1525,2047.899770,2046.584740,2046.854994,2047.500000,2049.260509,2047.120076,2047.061126,2046.340241,2046.394172,2046.521097,2047.112897
0.1537,2047.910539,2046.681237,2046.998986,2047.500000,2048.888255,2047.236379,2047.127193,2046.419919,2046.447465,2046.546690,2047.196673
0.1550,2047.932075,2046.806976,2047.164676,2047.500000,2048.556585,2047.379820,2047.193260,2046.464185,2046.602903,2046.629864,2047.300671
0.1562,2047.961688,2046.947335,2047.346145,2047.500000,2048.317279,2047.457355,2047.226293,2046.508450,2046.753899,2046.719437,2047.417668
0.1575,2047.996684,2047.096467,2047.537477,2047.500000,2048.157742,2047.430218,2047.235732,2046.570422,2046.820515,2046.751427,2047.543332
0.1588,2048.033027,2047.245599,2047.730782,2047.500000,2048.023394,2047.341052,2047.249889,2046.641247,2046.776105,2046.703442,2047.670441
0.1600,2048.065332,2047.388882,2047.918169,2047.500000,2047.852661,2047.275147,2047.278203,2046.689939,2046.682842,2046.601073,2047.790327
0.1613,2048.089560,2047.517545,2048.092735,2047.500000,2047.613355,2047.279024,2047.311237,2046.698793,2046.629549,2046.508301,2047.900102
0.1625,2048.098983,2047.622814,2048.246590,2047.500000,2047.322270,2047.341052,2047.330113,2046.698793,2046.673960,2046.473112,2047.989656
0.1638,2048.090906,2047.704691,2048.375788,2047.500000,2047.028385,2047.399204,2047.330113,2046.734205,2046.798310,2046.505102,2048.057543
0.1650,2048.059948,2047.754401,2048.474413,2047.500000,2046.793278,2047.406957,2047.301799,2046.831589,2046.949307,2046.578680,2048.096542
0.1663,2048.006107,2047.774870,2048.540492,2047.500000,2046.656131,2047.372066,2047.264046,2046.977666,2047.086980,2046.665054,2048.106653
0.1675,2047.928037,2047.763174,2048.573038,2047.500000,2046.614148,2047.344929,2047.240451,2047.114889,2047.198007,2046.741830,2048.089320
0.1688,2047.827085,2047.725160,2048.575010,2047.500000,2046.640737,2047.375943,2047.231013,2047.198994,2047.309034,2046.821806,2048.041655
0.1700,2047.707288,2047.660828,2048.549368,2047.500000,2046.705112,2047.461232,2047.245170,2047.221127,2047.424502,2046.911379,2047.972323
0.1713,2047.572686,2047.576028,2048.502028,2047.500000,2046.794677,2047.565905,2047.282922,2047.229980,2047.513323,2047.007350,2047.884214
0.1725,2047.430007,2047.482455,2048.439894,2047.500000,2046.916429,2047.639564,2047.348990,2047.265392,2047.535529,2047.093723,2047.784549
0.1737,2047.287328,2047.380110,2048.369871,2047.500000,2047.084363,2047.670578,2047.443371,2047.340644,2047.500000,2047.160903,2047.679107
0.1750,2047.152725,2047.280689,2048.299847,2047.500000,2047.287284,2047.674455,2047.561348,2047.438028,2047.455589,2047.228083,2047.577998
0.1762,2047.034274,2047.187116,2048.235741,2047.500000,2047.484606,2047.686085,2047.684044,2047.530986,2047.477795,2047.330452,2047.485556
0.1775,2046.940052,2047.105239,2048.182484,2047.500000,2047.628749,2047.740360,2047.783145,2047.623944,2047.615468,2047.503199,2047.409002
