Time(s),RA(V),LA(V),LL(V),RL(V),V1(V),V2(V),V3(V),V4(V),V5(V),V6(V),WCT(V)
0.0000,2045.973604,2048.529302,2048.167690,2047.500000,2046.786280,2053.326801,2052.544694,2051.147486,2050.555460,2050.647843,2047.557777
0.0013,2045.991102,2048.049741,2048.049340,2047.500000,2046.565167,2052.062970,2051.799080,2050.731389,2050.226820,2050.267159,2047.362781
0.0025,2046.001871,2047.584800,2047.924087,2047.500000,2046.370644,2050.876676,2051.077061,2050.368411,2049.924827,2049.908868,2047.170674
0.0037,2046.004563,2047.154950,2047.790943,2047.500000,2046.220902,2049.802807,2050.392795,2050.093965,2049.676127,2049.572970,2046.982900
0.0050,2045.996487,2046.760190,2047.648923,2047.500000,2046.115944,2048.818105,2049.779315,2049.908049,2049.485161,2049.253067,2046.802349
0.0063,2045.978988,2046.400519,2047.502959,2047.500000,2046.048770,2047.887678,2049.255497,2049.766399,2049.356370,2048.942762,2046.627575
0.0075,2045.952068,2046.073014,2047.355022,2047.500000,2046.012384,2046.999895,2048.830780,2049.615896,2049.289753,2048.654849,2046.460023
0.0088,2045.922455,2045.771826,2047.209057,2047.500000,2046.020781,2046.174141,2048.472130,2049.398995,2049.263107,2048.424519,2046.299693
0.0100,2045.890150,2045.494032,2047.069010,2047.500000,2046.096351,2045.441430,2048.141795,2049.102415,2049.258666,2048.274165,2046.150919
0.0112,2045.860538,2045.251327,2046.941784,2047.500000,2046.264285,2044.813391,2047.797302,2048.765996,2049.236460,2048.184592,2046.018033
0.0125,2045.837655,2045.040788,2046.832310,2047.500000,2046.518985,2044.255135,2047.415057,2048.438431,2049.156521,2048.111014,2045.903924
0.0138,2045.826887,2044.865339,2046.745520,2047.500000,2046.818468,2043.720139,2047.013935,2048.146278,2048.978878,2047.992650,2045.812926
0.0150,2045.828233,2044.722055,2046.684373,2047.500000,2047.084363,2043.177390,2046.617532,2047.880684,2048.712414,2047.810306,2045.745039
0.0163,2045.847077,2044.602165,2046.645909,2047.500000,2047.249498,2042.623011,2046.254163,2047.606237,2048.383774,2047.586374,2045.698817
0.0175,2045.884766,2044.505668,2046.628157,2047.500000,2047.285884,2042.095768,2045.928547,2047.331791,2048.046252,2047.372039,2045.672818
0.0187,2045.941299,2044.429640,2046.630129,2047.500000,2047.221509,2041.638308,2045.621807,2047.088330,2047.748700,2047.199291,2045.667040
0.0200,2046.016677,2044.371157,2046.646895,2047.500000,2047.120749,2041.281645,2045.315067,2046.924547,2047.517764,2047.068131,2045.678596
0.0213,2046.108207,2044.333143,2046.678455,2047.500000,2047.036782,2041.029654,2045.003608,2046.844869,2047.353445,2046.952966,2045.706039
0.0225,2046.215889,2044.309750,2046.717905,2047.500000,2046.997597,2040.866829,2044.706306,2046.805030,2047.246859,2046.828204,2045.747927
0.0238,2046.332994,2044.300978,2046.759328,2047.500000,2046.996198,2040.758279,2044.437319,2046.729778,2047.171360,2046.703442,2045.797037
0.0250,2046.455482,2044.300978,2046.796805,2047.500000,2047.017190,2040.676867,2044.191926,2046.565996,2047.095862,2046.588277,2045.850481
0.0262,2046.579317,2044.306826,2046.822448,2047.500000,2047.053575,2040.607085,2043.965411,2046.326961,2046.980394,2046.479510,2045.902480
0.0275,2046.696421,2044.312674,2046.830338,2047.500000,2047.112352,2040.541180,2043.724738,2046.061368,2046.789428,2046.348350,2045.947256
0.0288,2046.801411,2044.315598,2046.816530,2047.500000,2047.190721,2040.483028,2043.460469,2045.831187,2046.522963,2046.172403,2045.977589
0.0300,2046.891595,2044.309750,2046.777080,2047.500000,2047.269091,2040.424876,2043.182044,2045.654124,2046.212088,2045.951670,2045.993478
0.0312,2046.960243,2044.298053,2046.711988,2047.500000,2047.329267,2040.343464,2042.927214,2045.516901,2045.918977,2045.730938,2045.990589
0.0325,2047.006008,2044.280508,2046.624212,2047.500000,2047.361454,2040.203900,2042.724293,2045.392957,2045.683600,2045.567787,2045.970367
0.0338,2047.027544,2044.257115,2046.516711,2047.500000,2047.389443,2039.998430,2042.587440,2045.282293,2045.528163,2045.481413,2045.934257
0.0350,2047.024852,2044.230798,2046.393430,2047.500000,2047.438424,2039.761947,2042.502497,2045.211468,2045.430459,2045.443025,2045.883702
0.0362,2047.000624,2044.201556,2046.259300,2047.500000,2047.515394,2039.560354,2042.450587,2045.202615,2045.354961,2045.395040,2045.820148
0.0375,2046.958897,2044.172315,2046.120239,2047.500000,2047.592364,2039.451804,2042.417553,2045.260160,2045.283903,2045.305467,2045.750816
0.0387,2046.907748,2044.145997,2045.983151,2047.500000,2047.632948,2039.463435,2042.393958,2045.330985,2045.212846,2045.190302,2045.680040
0.0400,2046.852560,2044.131377,2045.858883,2047.500000,2047.630149,2039.560354,2042.403396,2045.370824,2045.141789,2045.103928,2045.615041
0.0413,2046.802757,2044.137225,2045.756313,2047.500000,2047.621752,2039.688288,2042.455306,2045.353118,2045.070732,2045.081535,2045.565931
0.0425,2046.767761,2044.166467,2045.681359,2047.500000,2047.663736,2039.820098,2042.540249,2045.286720,2044.990792,2045.116724,2045.538488
0.0437,2046.752954,2044.227874,2045.641909,2047.500000,2047.772893,2039.963539,2042.620474,2045.193762,2044.893089,2045.161511,2045.541376
0.0450,2046.766415,2044.321447,2045.640922,2047.500000,2047.900243,2040.145748,2042.648788,2045.096378,2044.795385,2045.187103,2045.577487
0.0462,2046.814872,2044.453033,2045.678400,2047.500000,2047.963218,2040.362848,2042.587440,2045.007846,2044.702122,2045.199899,2045.648263
0.0475,2046.901017,2044.619710,2045.752368,2047.500000,2047.903042,2040.564440,2042.455306,2044.937021,2044.626624,2045.235088,2045.758038
0.0488,2047.026198,2044.818552,2045.859870,2047.500000,2047.740705,2040.680744,2042.323172,2044.897182,2044.568890,2045.327860,2045.901035
0.0500,2047.190414,2045.046636,2045.995972,2047.500000,2047.551780,2040.692374,2042.257105,2044.901609,2044.524479,2045.455821,2046.077254
0.0512,2047.393664,2045.298113,2046.153771,2047.500000,2047.407636,2040.645853,2042.271262,2044.950301,2044.502274,2045.574185,2046.280916
0.0525,2047.629219,2045.570060,2046.328337,2047.500000,2047.315273,2040.649729,2042.337329,2044.990140,2044.506715,2045.612574,2046.509133
0.0537,2047.891694,2045.859551,2046.510793,2047.500000,2047.236903,2040.781540,2042.393958,2044.954728,2044.551126,2045.554991,2046.753239
0.0550,2048.175706,2046.151966,2046.693249,2047.500000,2047.134743,2041.056791,2042.408115,2044.804225,2044.631065,2045.436627,2047.007455
0.0563,2048.471832,2046.444381,2046.865843,2047.500000,2047.033983,2041.405702,2042.408115,2044.560764,2044.724328,2045.311865,2047.261672
0.0575,2048.773343,2046.725100,2047.020683,2047.500000,2047.008793,2041.719721,2042.460025,2044.304023,2044.813149,2045.235088,2047.505778
0.0587,2049.068123,2046.988273,2047.151854,2047.500000,2047.106754,2041.929067,2042.596878,2044.113681,2044.875324,2045.203098,2047.735439
0.0600,2049.350789,2047.225130,2047.256397,2047.500000,2047.285884,2042.033740,2042.766765,2044.025150,2044.901971,2045.187103,2047.944879
0.0612,2049.611918,2047.441517,2047.331352,2047.500000,2047.424430,2042.084138,2042.870585,2044.003017,2044.879765,2045.158312,2048.128320
0.0625,2049.844781,2047.628663,2047.376719,2047.500000,2047.416033,2042.146167,2042.828113,2043.998590,2044.808708,2045.113525,2048.284316
0.0638,2050.043993,2047.789491,2047.393485,2047.500000,2047.253697,2042.246963,2042.667664,2043.985311,2044.711005,2045.094331,2048.408536
0.0650,2050.202824,2047.918154,2047.381650,2047.500000,2047.057774,2042.367143,2042.502497,2043.998590,2044.631065,2045.145515,2048.500978
0.0663,2050.318583,2048.020499,2047.343187,2047.500000,2046.993399,2042.464063,2042.469463,2044.087122,2044.613301,2045.273477,2048.560199
0.0675,2050.388576,2048.093603,2047.279080,2047.500000,2047.152936,2042.522214,2042.611035,2044.246478,2044.675476,2045.436627,2048.587643
0.0688,2050.415497,2048.137465,2047.193277,2047.500000,2047.493003,2042.560982,2042.865866,2044.405834,2044.786503,2045.554991,2048.581865
0.0700,2050.399345,2048.155010,2047.086762,2047.500000,2047.877852,2042.623011,2043.115977,2044.472232,2044.875324,2045.558190,2048.547199
0.0712,2050.342811,2048.149162,2046.965454,2047.500000,2048.177334,2042.735437,2043.266987,2044.392554,2044.875324,2045.436627,2048.485089
0.0725,2050.252628,2048.122844,2046.833296,2047.500000,2048.341070,2042.875001,2043.323616,2044.215492,2044.773180,2045.244685,2048.402758
0.0737,2050.135523,2048.078982,2046.693249,2047.500000,2048.401246,2042.991305,2043.333054,2044.056136,2044.599978,2045.065540,2048.301649
0.0750,2049.995536,2048.020499,2046.547284,2047.500000,2048.405444,2043.049456,2043.342492,2044.007444,2044.413453,2044.975967,2048.187540
0.0762,2049.842089,2047.947395,2046.398361,2047.500000,2048.371858,2043.064963,2043.347212,2044.064989,2044.262456,2044.979166,2048.063321
0.0775,2049.683258,2047.862595,2046.247465,2047.500000,2048.283692,2043.115362,2043.309459,2044.157947,2044.155870,2045.027151,2047.930435
0.0788,2049.525772,2047.763174,2046.097555,2047.500000,2048.142348,2043.270433,2043.205639,2044.188933,2044.093695,2045.055943,2047.796105
0.0800,2049.375017,2047.660828,2045.950604,2047.500000,2047.992607,2043.526300,2043.087662,2044.126961,2044.084813,2045.020753,2047.663219
0.0813,2049.237722,2047.558483,2045.811543,2047.500000,2047.912838,2043.820936,2043.031033,2044.011870,2044.146988,2044.927982,2047.536110
0.0825,2049.119272,2047.459062,2045.682345,2047.500000,2047.952022,2044.053542,2043.106539,2043.914486,2044.271338,2044.803219,2047.420557
0.0838,2049.021012,2047.368413,2045.565968,2047.500000,2048.090568,2044.173723,2043.300021,2043.852514,2044.417894,2044.672059,2047.319448
0.0850,2048.946980,2047.292385,2045.464384,2047.500000,2048.247306,2044.212490,2043.521817,2043.759556,2044.506715,2044.524904,2047.234228
0.0862,2048.895831,2047.236826,2045.378580,2047.500000,2048.331274,2044.239628,2043.672828,2043.560361,2044.471187,2044.342559,2047.170674
0.0875,2048.867565,2047.204661,2045.309543,2047.500000,2048.303285,2044.313287,2043.686985,2043.232795,2044.306867,2044.118627,2047.127342
0.0887,2048.860834,2047.198812,2045.257272,2047.500000,2048.181532,2044.421837,2043.587885,2042.856538,2044.053725,2043.891497,2047.105675
0.0900,2048.875641,2047.219281,2045.223740,2047.500000,2048.024794,2044.534263,2043.451031,2042.573238,2043.800584,2043.737943,2047.107120
0.0912,2048.907945,2047.271916,2045.209932,2047.500000,2047.894645,2044.623429,2043.370807,2042.506839,2043.618500,2043.734744,2047.130230
0.0925,2048.956402,2047.356717,2045.215850,2047.500000,2047.827471,2044.712595,2043.413279,2042.675049,2043.543002,2043.891497,2047.176452
0.0938,2049.018320,2047.470758,2045.240506,2047.500000,2047.851262,2044.844406,2043.583165,2042.998188,2043.582971,2044.150618,2047.242895
0.0950,2049.091005,2047.608194,2045.283901,2047.500000,2047.970215,2045.030491,2043.842715,2043.330180,2043.720645,2044.387346,2047.328115
0.0963,2049.170421,2047.760250,2045.341103,2047.500000,2048.177334,2045.204946,2044.097545,2043.560361,2043.920493,2044.505710,2047.424891
0.0975,2049.256567,2047.918154,2045.411127,2047.500000,2048.430634,2045.278605,2044.272151,2043.644466,2044.115901,2044.464123,2047.527444
0.0988,2049.344059,2048.067286,2045.491013,2047.500000,2048.669941,2045.201069,2044.319342,2043.604627,2044.231368,2044.300972,2047.634330
0.1000,2049.432896,2048.201797,2045.576816,2047.500000,2048.842073,2044.991723,2044.248555,2043.498389,2044.209163,2044.109030,2047.736884
0.1013,2049.517696,2048.312914,2045.666565,2047.500000,2048.931638,2044.751363,2044.121140,2043.370019,2044.049284,2043.961875,2047.832215
0.1025,2049.597112,2048.391866,2045.759272,2047.500000,2048.968023,2044.576908,2044.022040,2043.246075,2043.818348,2043.891497,2047.915991
0.1037,2049.668451,2048.432805,2045.850993,2047.500000,2049.008608,2044.507126,2043.984287,2043.153117,2043.618500,2043.891497,2047.983878
0.1050,2049.727677,2048.426956,2045.938769,2047.500000,2049.089776,2044.507126,2043.998444,2043.113278,2043.529679,2043.917089,2048.031544
0.1062,2049.773442,2048.380170,2046.020628,2047.500000,2049.210128,2044.511002,2044.031478,2043.161970,2043.569648,2043.949079,2048.057543
0.1075,2049.801708,2048.286597,2046.093610,2047.500000,2049.336079,2044.499372,2044.040916,2043.325753,2043.707322,2043.977870,2048.060432
0.1087,2049.811130,2048.155010,2046.156730,2047.500000,2049.427043,2044.503249,2044.040916,2043.591347,2043.898288,2044.019458,2048.040210
0.1100,2049.799016,2047.991258,2046.208015,2047.500000,2049.471826,2044.576908,2044.069230,2043.910059,2044.111459,2044.070642,2047.998322
0.1113,2049.764019,2047.804112,2046.247465,2047.500000,2049.480222,2044.731979,2044.140017,2044.206639,2044.320190,2044.131424,2047.939101
0.1125,2049.704794,2047.608194,2046.278039,2047.500000,2049.473225,2044.933572,2044.234398,2044.396981,2044.502274,2044.182608,2047.863992
0.1138,2049.621340,2047.415200,2046.299736,2047.500000,2049.462029,2045.111903,2044.305184,2044.454526,2044.599978,2044.208200,2047.778772
0.1150,2049.515004,2047.236826,2046.313544,2047.500000,2049.445236,2045.228207,2044.314622,2044.419114,2044.573331,2044.205001,2047.687774
0.1163,2049.387131,2047.078922,2046.319461,2047.500000,2049.418646,2045.290235,2044.291027,2044.383701,2044.426776,2044.189006,2047.593887
0.1175,2049.240414,2046.947335,2046.319461,2047.500000,2049.387859,2045.367771,2044.295746,2044.432393,2044.226927,2044.179409,2047.501444
0.1187,2049.077545,2046.847914,2046.314530,2047.500000,2049.372465,2045.511212,2044.390128,2044.596176,2044.080372,2044.192205,2047.413335
0.1200,2048.906599,2046.786507,2046.308612,2047.500000,2049.392057,2045.720558,2044.569453,2044.835210,2044.071490,2044.240191,2047.333893
0.1212,2048.730270,2046.760190,2046.301709,2047.500000,2049.438239,2045.941534,2044.786530,2045.083098,2044.204722,2044.313768,2047.264561
0.1225,2048.553940,2046.768962,2046.298750,2047.500000,2049.473225,2046.096606,2044.961136,2045.291146,2044.409011,2044.393744,2047.208229
0.1237,2048.387033,2046.806976,2046.299736,2047.500000,2049.436839,2046.158634,2045.079113,2045.472635,2044.595537,2044.460923,2047.164896
0.1250,2048.232239,2046.868383,2046.306640,2047.500000,2049.285699,2046.158634,2045.192371,2045.667404,2044.719887,2044.524904,2047.136008
0.1263,2048.094944,2046.944411,2046.318475,2047.500000,2049.017004,2046.162511,2045.362258,2045.897585,2044.795385,2044.608079,2047.120119
0.1275,2047.981878,2047.026287,2046.336227,2047.500000,2048.688133,2046.220663,2045.607650,2046.118913,2044.888648,2044.729642,2047.115786
0.1288,2047.893040,2047.108164,2046.358911,2047.500000,2048.390050,2046.325336,2045.881356,2046.242857,2045.035203,2044.889593,2047.120119
0.1300,2047.831123,2047.178343,2046.385540,2047.500000,2048.205323,2046.410625,2046.088996,2046.207444,2045.230610,2045.046346,2047.131675
0.1313,2047.794780,2047.233902,2046.414141,2047.500000,2048.161940,2046.406748,2046.164501,2046.021529,2045.403812,2045.142316,2047.147563
0.1325,2047.782666,2047.271916,2046.444715,2047.500000,2048.220717,2046.305952,2046.107872,2045.769215,2045.501516,2045.126321,2047.166341
0.1338,2047.792088,2047.286537,2046.474302,2047.500000,2048.308882,2046.154757,2045.994614,2045.556740,2045.505957,2045.007957,2047.183674
0.1350,2047.814971,2047.280689,2046.499944,2047.500000,2048.360662,2046.057838,2045.909671,2045.441649,2045.465987,2044.864001,2047.198118
0.1363,2047.848621,2047.248523,2046.520656,2047.500000,2048.363461,2046.077222,2045.904952,2045.415090,2045.461546,2044.787224,2047.205340
0.1375,2047.886310,2047.190040,2046.534463,2047.500000,2048.352265,2046.209032,2045.971019,2045.428370,2045.545927,2044.851205,2047.203895
0.1388,2047.922653,2047.114012,2046.538408,2047.500000,2048.374656,2046.367980,2046.079558,2045.454929,2045.714688,2045.059142,2047.190896
0.1400,2047.952265,2047.020439,2046.535449,2047.500000,2048.457224,2046.484284,2046.211692,2045.512474,2045.910095,2045.353452,2047.169230
0.1412,2047.975148,2046.918094,2046.527559,2047.500000,2048.592971,2046.523051,2046.386298,2045.627565,2046.087738,2045.650962,2047.140341
0.1425,2047.985916,2046.812824,2046.516711,2047.500000,2048.759505,2046.546312,2046.603375,2045.800201,2046.220970,2045.910083,2047.105675
0.1437,2047.987262,2046.710479,2046.507834,2047.500000,2048.944233,2046.619971,2046.848767,2045.981690,2046.331997,2046.121219,2047.068121
0.1450,2047.977840,2046.619830,2046.504876,2047.500000,2049.154150,2046.790549,2047.061126,2046.096780,2046.460788,2046.306763,2047.034899
0.1462,2047.961688,2046.546726,2046.512766,2047.500000,2049.387859,2047.003772,2047.183822,2046.123340,2046.594021,2046.469913,2047.007455
0.1475,2047.942843,2046.497016,2046.535449,2047.500000,2049.613170,2047.166597,2047.193260,2046.096780,2046.687283,2046.594675,2046.991567
0.1487,2047.922653,2046.470698,2046.578844,2047.500000,2049.761512,2047.213118,2047.127193,2046.079074,2046.691724,2046.645860,2046.991567
0.1500,2047.907847,2046.476547,2046.644923,2047.500000,2049.760112,2047.158843,2047.046969,2046.123340,2046.594021,2046.620267,2047.010344
0.1512,2047.898424,2046.514561,2046.736644,2047.500000,2049.580983,2047.100692,2047.023373,2046.225151,2046.465229,2046.559486,2047.050788
0.1525,2047.899770,2046.584740,2046.854994,2047.500000,2049.260509,2047.120076,2047.061126,2046.340241,2046.394172,2046.521097,2047.112897
0.1537,2047.910539,2046.681237,2046.998986,2047.500000,2048.888255,2047.236379,2047.127193,2046.419919,2046.447465,2046.546690,2047.196673
0.1550,2047.932075,2046.806976,2047.164676,2047.500000,2048.556585,2047.379820,2047.193260,2046.464185,2046.602903,2046.629864,2047.300671
0.1562,2047.961688,2046.947335,2047.346145,2047.500000,2048.317279,2047.457355,2047.226293,2046.508450,2046.753899,2046.719437,2047.417668
0.1575,2047.996684,2047.096467,2047.537477,2047.500000,2048.157742,2047.430218,2047.235732,2046.570422,2046.820515,2046.751427,2047.543332
0.1588,2048.033027,2047.245599,2047.730782,2047.500000,2048.023394,2047.341052,2047.249889,2046.641247,2046.776105,2046.703442,2047.670441
0.1600,2048.065332,2047.388882,2047.918169,2047.500000,2047.852661,2047.275147,2047.278203,2046.689939,2046.682842,2046.601073,2047.790327
0.1613,2048.089560,2047.517545,2048.092735,2047.500000,2047.613355,2047.279024,2047.311237,2046.698793,2046.629549,2046.508301,2047.900102
0.1625,2048.098983,2047.622814,2048.246590,2047.500000,2047.322270,2047.341052,2047.330113,2046.698793,2046.673960,2046.473112,2047.989656
0.1638,2048.090906,2047.704691,2048.375788,2047.500000,2047.028385,2047.399204,2047.330113,2046.734205,2046.798310,2046.505102,2048.057543
0.1650,2048.059948,2047.754401,2048.474413,2047.500000,2046.793278,2047.406957,2047.301799,2046.831589,2046.949307,2046.578680,2048.096542
0.1663,2048.006107,2047.774870,2048.540492,2047.500000,2046.656131,2047.372066,2047.264046,2046.977666,2047.086980,2046.665054,2048.106653
0.1675,2047.928037,2047.763174,2048.573038,2047.500000,2046.614148,2047.344929,2047.240451,2047.114889,2047.198007,2046.741830,2048.089320
0.1688,2047.827085,2047.725160,2048.575010,2047.500000,2046.640737,2047.375943,2047.231013,2047.198994,2047.309034,2046.821806,2048.041655
0.1700,2047.707288,2047.660828,2048.549368,2047.500000,2046.705112,2047.461232,2047.245170,2047.221127,2047.424502,2046.911379,2047.972323
0.1713,2047.572686,2047.576028,2048.502028,2047.500000,2046.794677,2047.565905,2047.282922,2047.229980,2047.513323,2047.007350,2047.884214
0.1725,2047.430007,2047.482455,2048.439894,2047.500000,2046.916429,2047.639564,2047.348990,2047.265392,2047.535529,2047.093723,2047.784549
0.1737,2047.287328,2047.380110,2048.369871,2047.500000,2047.084363,2047.670578,2047.443371,2047.340644,2047.500000,2047.160903,2047.679107
0.1750,2047.152725,2047.280689,2048.299847,2047.500000,2047.287284,2047.674455,2047.561348,2047.438028,2047.455589,2047.228083,2047.577998
0.1762,2047.034274,2047.187116,2048.235741,2047.500000,2047.484606,2047.686085,2047.684044,2047.530986,2047.477795,2047.330452,2047.485556
0.1775,2046.940052,2047.105239,2048.182484,2047.500000,2047.628749,2047.740360,2047.783145,2047.623944,2047.615468,2047.503199,2047.409002
0.1787,2046.875443,2047.037984,2048.145992,2047.500000,2047.700121,2047.833403,2047.839774,2047.743461,2047.846404,2047.749524,2047.352670
0.1800,2046.847176,2046.985349,2048.130212,2047.500000,2047.721113,2047.953583,2047.839774,2047.898390,2048.095104,2048.021442,2047.320893
0.1812,2046.859291,2046.956108,2048.136130,2047.500000,2047.740705,2048.066010,2047.787864,2048.062173,2048.272747,2048.248573,2047.318004
0.1825,2046.913132,2046.947335,2048.166704,2047.500000,2047.791086,2048.135792,2047.712359,2048.163984,2048.321599,2048.373335,2047.342559
0.1837,2047.007354,2046.961956,2048.218975,2047.500000,2047.854061,2048.128038,2047.632134,2048.159558,2048.241660,2048.376534,2047.396002
0.1850,2047.140610,2046.994122,2048.291957,2047.500000,2047.876452,2048.031119,2047.575505,2048.057747,2048.059576,2048.290160,2047.475445
0.1862,2047.307518,2047.043832,2048.382692,2047.500000,2047.813477,2047.856664,2047.556629,2047.924950,2047.837522,2048.149403,2047.577998
0.1875,2047.501346,2047.114012,2048.487234,2047.500000,2047.677730,2047.651194,2047.575505,2047.849698,2047.628791,2047.992650,2047.700773
0.1888,2047.715365,2047.192964,2048.599667,2047.500000,2047.536386,2047.472863,2047.636853,2047.876258,2047.486677,2047.848694,2047.836548
0.1900,2047.941497,2047.283613,2048.717030,2047.500000,2047.467813,2047.383697,2047.735954,2047.986922,2047.446707,2047.739927,2047.980989
0.1913,2048.171668,2047.383034,2048.835380,2047.500000,2047.505598,2047.403080,2047.853931,2048.124145,2047.513323,2047.695141,2048.129764
0.1925,2048.397801,2047.488303,2048.949785,2047.500000,2047.604959,2047.511630,2047.981346,2048.234809,2047.650997,2047.730330,2048.278538
0.1938,2048.610473,2047.593573,2049.058272,2047.500000,2047.677730,2047.655071,2048.080447,2048.305634,2047.797552,2047.829500,2048.420091
0.1950,2048.806993,2047.698842,2049.155910,2047.500000,2047.645543,2047.775251,2048.137076,2048.349900,2047.890815,2047.954262,2048.552977
0.1963,2048.979285,2047.801188,2049.240728,2047.500000,2047.491603,2047.833403,2048.141795,2048.380886,2047.899697,2048.047034,2048.672863
0.1975,2049.124656,2047.894761,2049.310751,2047.500000,2047.271890,2047.814019,2048.122918,2048.385312,2047.841963,2048.072626,2048.776861
0.1988,2049.241760,2047.982485,2049.364009,2047.500000,2047.067570,2047.732607,2048.108761,2048.345473,2047.762023,2048.043835,2048.862081
0.2000,2049.331944,2048.058513,2049.400500,2047.500000,2046.940220,2047.627934,2048.127637,2048.265795,2047.704289,2047.999048,2048.929969
0.2013,2049.396554,2048.125769,2049.420225,2047.500000,2046.903834,2047.531014,2048.160671,2048.163984,2047.686525,2047.976655,2048.980523
0.2025,2049.438281,2048.181327,2049.423184,2047.500000,2046.931823,2047.461232,2048.160671,2048.079879,2047.699848,2047.973456,2049.013744
0.2037,2049.461163,2048.228114,2049.411349,2047.500000,2046.994798,2047.426341,2048.080447,2048.017908,2047.708731,2047.963859,2049.033966
0.2050,2049.471931,2048.269052,2049.386692,2047.500000,2047.081564,2047.418588,2047.882245,2047.964789,2047.690966,2047.915874,2049.041188
0.2062,2049.473277,2048.298294,2049.350201,2047.500000,2047.196319,2047.430218,2047.599101,2047.885111,2047.624350,2047.819903,2049.041188
0.2075,2049.471931,2048.324611,2049.304834,2047.500000,2047.344661,2047.445725,2047.292361,2047.770020,2047.513323,2047.704738,2049.033966
0.2087,2049.471931,2048.348004,2049.252563,2047.500000,2047.509796,2047.441848,2047.023373,2047.646077,2047.380091,2047.605568,2049.023855
0.2100,2049.478661,2048.368473,2049.198319,2047.500000,2047.653940,2047.383697,2046.825172,2047.575252,2047.255741,2047.547985,2049.015189
0.2112,2049.493468,2048.388942,2049.144075,2047.500000,2047.729510,2047.228625,2046.678880,2047.601811,2047.184684,2047.531990,2049.009411
0.2125,2049.519042,2048.412335,2049.092791,2047.500000,2047.711317,2046.972758,2046.565623,2047.747887,2047.189125,2047.551184,2049.007967
0.2137,2049.555385,2048.441577,2049.050382,2047.500000,2047.610557,2046.654862,2046.471241,2047.969215,2047.282387,2047.586374,2049.015189
0.2150,2049.601150,2048.473743,2049.016849,2047.500000,2047.480408,2046.375734,2046.414612,2048.212676,2047.428943,2047.631160,2049.031077
0.2162,2049.654991,2048.514681,2048.995152,2047.500000,2047.381047,2046.212909,2046.424050,2048.394165,2047.571057,2047.679146,2049.054188
0.2175,2049.711524,2048.558543,2048.986276,2047.500000,2047.355857,2046.193525,2046.499556,2048.464990,2047.637673,2047.711136,2049.085965
0.2188,2049.769403,2048.608254,2048.991207,2047.500000,2047.400639,2046.263307,2046.593937,2048.403018,2047.588822,2047.701539,2049.123520
0.2200,2049.823245,2048.663813,2049.009946,2047.500000,2047.472011,2046.333089,2046.645847,2048.248089,2047.420061,2047.634359,2049.165408
0.2213,2049.867663,2048.719371,2049.041506,2047.500000,2047.513995,2046.348596,2046.626971,2048.062173,2047.198007,2047.506398,2049.210185
0.2225,2049.901314,2048.777854,2049.083914,2047.500000,2047.501399,2046.325336,2046.570342,2047.938230,2047.002600,2047.352845,2049.253517
0.2238,2049.920159,2048.833413,2049.134213,2047.500000,2047.446821,2046.329212,2046.560904,2047.916097,2046.922660,2047.218486,2049.296849
0.2250,2049.921505,2048.888972,2049.189443,2047.500000,2047.386645,2046.395118,2046.674161,2047.986922,2047.002600,2047.154505,2049.332960
0.2263,2049.905352,2048.941607,2049.243687,2047.500000,2047.343262,2046.499791,2046.910115,2048.097586,2047.229094,2047.176898,2049.363292
0.2275,2049.871702,2048.988393,2049.292999,2047.500000,2047.294281,2046.561819,2047.188541,2048.172837,2047.517764,2047.260073,2049.384959
0.2288,2049.823245,2049.029332,2049.333435,2047.500000,2047.197719,2046.523051,2047.377304,2048.181690,2047.766465,2047.359243,2049.395069
0.2300,2049.761327,2049.067346,2049.360064,2047.500000,2047.031184,2046.410625,2047.386742,2048.115292,2047.886374,2047.400830,2049.395069
0.2313,2049.689988,2049.096587,2049.370913,2047.500000,2046.832462,2046.317582,2047.212136,2047.986922,2047.855286,2047.352845,2049.386403
0.2325,2049.615956,2049.122904,2049.363023,2047.500000,2046.696715,2046.329212,2046.933711,2047.783300,2047.690966,2047.212087,2049.367626
0.2338,2049.540579,2049.149222,2049.335408,2047.500000,2046.716308,2046.457146,2046.655285,2047.482294,2047.473354,2047.029743,2049.341626
0.2350,2049.471931,2049.169691,2049.288068,2047.500000,2046.923426,2046.608341,2046.447646,2047.088330,2047.273505,2046.860194,2049.309849
0.2362,2049.411360,2049.193084,2049.222975,2047.500000,2047.252297,2046.666492,2046.310792,2046.658953,2047.144714,2046.741830,2049.275183
0.2375,2049.362903,2049.210629,2049.140130,2047.500000,2047.585366,2046.600587,2046.225849,2046.304829,2047.095862,2046.677850,2049.239073
0.2387,2049.330598,2049.231098,2049.044464,2047.500000,2047.816276,2046.476530,2046.159782,2046.118913,2047.104744,2046.639461,2049.201518
0.2400,2049.315792,2049.245719,2048.938936,2047.500000,2047.910039,2046.414502,2046.126748,2046.110060,2047.140273,2046.597874,2049.166852
0.2412,2049.317138,2049.260340,2048.827490,2047.500000,2047.897444,2046.472653,2046.117310,2046.194165,2047.175801,2046.546690,2049.135075
0.2425,2049.335982,2049.266188,2048.716044,2047.500000,2047.835868,2046.604464,2046.103153,2046.247283,2047.184684,2046.508301,2049.106187
0.2437,2049.368287,2049.266188,2048.608543,2047.500000,2047.763097,2046.693630,2046.032367,2046.207444,2047.153596,2046.498704,2049.081632
0.2450,2049.411360,2049.257415,2048.506959,2047.500000,2047.690325,2046.666492,2045.862480,2046.110060,2047.069216,2046.508301,2049.058521
0.2462,2049.463855,2049.236946,2048.414252,2047.500000,2047.627350,2046.538559,2045.607650,2046.052515,2046.949307,2046.501903,2049.038299
0.2475,2049.520388,2049.198932,2048.331407,2047.500000,2047.607758,2046.422255,2045.352820,2046.118913,2046.811633,2046.463515,2049.016633
0.2487,2049.578267,2049.149222,2048.260397,2047.500000,2047.674931,2046.410625,2045.192371,2046.278269,2046.696165,2046.393136,2048.996412
0.2500,2049.633455,2049.081966,2048.201222,2047.500000,2047.841466,2046.507544,2045.182933,2046.415493,2046.633990,2046.335554,2048.973301
0.2512,2049.685950,2049.003014,2048.150924,2047.500000,2048.061180,2046.616094,2045.282033,2046.406639,2046.616226,2046.329156,2048.947301
0.2525,2049.733061,2048.912365,2048.110488,2047.500000,2048.236111,2046.623848,2045.404729,2046.238430,2046.611785,2046.380340,2048.918413
0.2537,2049.774788,2048.815868,2048.075969,2047.500000,2048.280893,2046.495914,2045.466077,2046.021529,2046.580697,2046.460316,2048.889525
0.2550,2049.811130,2048.716447,2048.045395,2047.500000,2048.181532,2046.325336,2045.451920,2045.924144,2046.514081,2046.508301,2048.857748
0.2562,2049.842089,2048.619950,2048.017780,2047.500000,2048.003802,2046.240046,2045.395291,2046.043662,2046.425260,2046.501903,2048.827415
0.2575,2049.870356,2048.532226,2047.988193,2047.500000,2047.844265,2046.305952,2045.343381,2046.340241,2046.358644,2046.441122,2048.797083
0.2587,2049.898622,2048.456198,2047.956633,2047.500000,2047.775692,2046.472653,2045.300910,2046.654527,2046.323115,2046.357947,2048.769639
0.2600,2049.925543,2048.394791,2047.920142,2047.500000,2047.798083,2046.604464,2045.230124,2046.827163,2046.300910,2046.268374,2048.746528
0.2612,2049.953809,2048.353852,2047.878719,2047.500000,2047.863857,2046.581203,2045.107428,2046.791750,2046.256499,2046.166005,2048.729195
0.2625,2049.982076,2048.336308,2047.830393,2047.500000,2047.919835,2046.410625,2044.965855,2046.610261,2046.154354,2046.038044,2048.716195
0.2637,2050.011688,2048.336308,2047.776149,2047.500000,2047.938028,2046.201279,2044.862036,2046.397786,2046.007799,2045.874894,2048.707529
0.2650,2050.038609,2048.356777,2047.715002,2047.500000,2047.922634,2046.073345,2044.843159,2046.207444,2045.861243,2045.702146,2048.703196
0.2662,2050.060146,2048.394791,2047.647937,2047.500000,2047.877852,2046.081098,2044.885631,2046.012676,2045.750216,2045.545394,2048.700307
0.2675,2050.073606,2048.441577,2047.575941,2047.500000,2047.803681,2046.162511,2044.890350,2045.751509,2045.674718,2045.414234,2048.697418
0.2687,2050.076298,2048.491288,2047.498028,2047.500000,2047.701521,2046.228416,2044.772373,2045.392957,2045.603661,2045.283074,2048.688752
0.2700,2050.062838,2048.535150,2047.416169,2047.500000,2047.602160,2046.212909,2044.522262,2045.025553,2045.501516,2045.123122,2048.671419
0.2712,2050.030533,2048.573164,2047.332338,2047.500000,2047.554579,2046.147004,2044.224960,2044.773239,2045.377166,2044.940778,2048.645419
0.2725,2049.976692,2048.590709,2047.246534,2047.500000,2047.604959,2046.108236,2044.012602,2044.728973,2045.266139,2044.771229,2048.604976
0.2737,2049.898622,2048.587785,2047.160731,2047.500000,2047.753301,2046.135373,2043.937096,2044.830784,2045.195082,2044.649666,2048.548644
0.2750,2049.797670,2048.555619,2047.075913,2047.500000,2047.953422,2046.212909,2043.960692,2044.941448,2045.163994,2044.595283,2048.476423
0.2762,2049.672489,2048.491288,2046.993069,2047.500000,2048.136750,2046.267184,2043.998444,2044.906035,2045.119584,2044.582487,2048.385425
0.2775,2049.523080,2048.391866,2046.912196,2047.500000,2048.258502,2046.243923,2043.998444,2044.702414,2045.039644,2044.582487,2048.275650
0.2787,2049.352135,2048.254431,2046.836255,2047.500000,2048.318678,2046.170264,2043.993725,2044.450100,2044.941941,2044.601681,2048.148541
0.2800,2049.162345,2048.084830,2046.766231,2047.500000,2048.345268,2046.115989,2044.083388,2044.321729,2044.906412,2044.675258,2048.004100
0.2812,2048.952364,2047.880140,2046.702125,2047.500000,2048.370458,2046.154757,2044.328780,2044.432393,2045.012998,2044.844807,2047.845215
0.2825,2048.724886,2047.643283,2046.645909,2047.500000,2048.405444,2046.294321,2044.706306,2044.742253,2045.270580,2045.110326,2047.671885
0.2838,2048.478562,2047.380110,2046.600542,2047.500000,2048.462822,2046.488160,2045.112147,2045.114084,2045.603661,2045.404637,2047.487000
0.2850,2048.216087,2047.093543,2046.565037,2047.500000,2048.569180,2046.674246,2045.433044,2045.415090,2045.901213,2045.650962,2047.292005
0.2863,2047.933421,2046.786507,2046.541367,2047.500000,2048.756706,2046.825440,2045.631245,2045.596579,2046.069974,2045.810913,2047.086898
0.2875,2047.630565,2046.464850,2046.531504,2047.500000,2049.035197,2046.965004,2045.753941,2045.693963,2046.118826,2045.913282,2046.876014
0.2888,2047.307518,2046.131497,2046.535449,2047.500000,2049.364068,2047.123952,2045.886075,2045.791348,2046.123267,2046.034845,2046.657907
0.2900,2046.961589,2045.789371,2046.553202,2047.500000,2049.652355,2047.321668,2046.084277,2045.932997,2046.167677,2046.210792,2046.435468
0.2913,2046.592777,2045.444321,2046.585748,2047.500000,2049.825887,2047.546521,2046.357983,2046.123340,2046.292027,2046.428326,2046.207251
0.2925,2046.203775,2045.099271,2046.633088,2047.500000,2049.873468,2047.779128,2046.697757,2046.357947,2046.482994,2046.623466,2045.977589
0.2938,2045.794582,2044.754221,2046.694235,2047.500000,2049.852476,2048.038872,2047.094159,2046.645674,2046.705047,2046.757826,2045.747927
0.2950,2045.370583,2044.415019,2046.766231,2047.500000,2049.838482,2048.356768,2047.556629,2047.021931,2046.958189,2046.856995,2045.516821
0.2963,2044.938508,2044.081666,2046.847104,2047.500000,2049.866471,2048.752200,2048.085166,2047.500000,2047.282387,2047.000952,2045.288604
0.2975,2044.503741,2043.760009,2046.932907,2047.500000,2049.905655,2049.198030,2048.651455,2048.048894,2047.708731,2047.269670,2045.066165
0.2988,2044.075704,2043.450049,2047.022656,2047.500000,2049.911253,2049.632229,2049.179992,2048.593361,2048.223895,2047.672748,2044.849503
0.3000,2043.663820,2043.154710,2047.110432,2047.500000,2049.884663,2049.985016,2049.609428,2049.058149,2048.756824,2048.152602,2044.642952
0.3013,2043.276164,2042.876915,2047.195249,2047.500000,2049.897258,2050.237007,2049.911449,2049.416701,2049.205373,2048.603665,2044.449400
0.3025,2042.923504,2042.619590,2047.273163,2047.500000,2050.033005,2050.423092,2050.109650,2049.686721,2049.494043,2048.949160,2044.271738
0.3038,2042.612572,2042.388582,2047.342200,2047.500000,2050.305898,2050.582040,2050.246503,2049.890343,2049.609511,2049.169893,2044.114297
0.3050,2042.350096,2042.183891,2047.401375,2047.500000,2050.633369,2050.740988,2050.364480,2050.049699,2049.591747,2049.291456,2043.978522
0.3063,2042.138770,2042.005518,2047.449701,2047.500000,2050.881072,2050.865045,2050.477738,2050.160363,2049.507366,2049.349038,2043.864413
0.3075,2041.981285,2041.859310,2047.487179,2047.500000,2050.963640,2050.923197,2050.614591,2050.217908,2049.400780,2049.365033,2043.776304
0.3088,2041.874948,2041.742344,2047.516766,2047.500000,2050.906262,2050.911567,2050.793916,2050.253321,2049.303077,2049.336242,2043.711306
0.3100,2041.813031,2041.654620,2047.537477,2047.500000,2050.816697,2050.896059,2051.039308,2050.315293,2049.209814,2049.256266,2043.667973
0.3113,2041.788803,2041.590288,2047.554244,2047.500000,2050.801303,2050.965841,2051.327172,2050.430383,2049.125434,2049.147499,2043.644863
0.3125,2041.790149,2041.546426,2047.568051,2047.500000,2050.882472,2051.179064,2051.596160,2050.580886,2049.072141,2049.051529,2043.634752
0.3137,2041.802263,2041.514261,2047.580872,2047.500000,2051.001425,2051.527975,2051.775484,2050.731389,2049.072141,2049.013140,2043.633307
0.3150,2041.810339,2041.487943,2047.594680,2047.500000,2051.095188,2051.935037,2051.846271,2050.837627,2049.143198,2049.061126,2043.631863
0.3162,2041.796879,2041.455777,2047.611446,2047.500000,2051.155364,2052.318838,2051.850990,2050.912878,2049.289753,2049.169893,2043.620308
0.3175,2041.744384,2041.403143,2047.629198,2047.500000,2051.240731,2052.659994,2051.884023,2051.014689,2049.476279,2049.275460,2043.592864
0.3187,2041.640740,2041.324191,2047.647937,2047.500000,2051.410064,2052.981767,2052.025596,2051.191752,2049.658363,2049.320247,2043.537976
0.3200,2041.469794,2041.210149,2047.666676,2047.500000,2051.652169,2053.326801,2052.304021,2051.479478,2049.787154,2049.285058,2043.448423
0.3212,2041.224817,2041.049320,2047.683442,2047.500000,2051.869084,2053.691218,2052.672109,2051.838030,2049.862652,2049.214679,2043.319870
0.3225,2040.901770,2040.841706,2047.696263,2047.500000,2051.930660,2054.020744,2053.077950,2052.223140,2049.924827,2049.201883,2043.146540
0.3237,2040.497962,2040.578532,2047.703167,2047.500000,2051.758527,2054.249474,2053.479072,2052.608251,2050.044736,2049.323446,2042.926990
0.3250,2040.020122,2040.265648,2047.700208,2047.500000,2051.369480,2054.350271,2053.889631,2053.019921,2050.293436,2049.592164,2042.662662
0.3262,2039.479018,2039.908901,2047.687387,2047.500000,2050.858681,2054.365778,2054.319067,2053.502416,2050.688692,2049.960052,2042.357891
0.3275,2038.886766,2039.511216,2047.663717,2047.500000,2050.328289,2054.361901,2054.762661,2054.095576,2051.194975,2050.366329,2042.019898
0.3287,2038.262209,2039.084290,2047.626240,2047.500000,2049.832884,2054.377408,2055.177940,2054.768413,2051.732345,2050.779004,2041.657351
0.3300,2037.624192,2038.642743,2047.577914,2047.500000,2049.358470,2054.377408,2055.512994,2055.432397,2052.251951,2051.220469,2041.281804
0.3312,2036.995596,2038.201196,2047.519725,2047.500000,2048.854668,2054.280489,2055.748948,2055.985717,2052.722705,2051.735513,2040.906256
0.3325,2036.395268,2037.774270,2047.453646,2047.500000,2048.278094,2054.009114,2055.895239,2056.353121,2053.149048,2052.304940,2040.540820
0.3337,2035.842050,2037.379509,2047.383623,2047.500000,2047.620353,2053.555531,2055.966026,2056.521331,2053.522098,2052.845576,2040.201383
0.3350,2035.352096,2037.025687,2047.312613,2047.500000,2046.905234,2052.962383,2055.947149,2056.543464,2053.797445,2053.239056,2039.896612
0.3362,2034.936173,2036.733272,2047.246534,2047.500000,2046.173321,2052.295577,2055.805577,2056.472639,2053.912913,2053.402206,2039.638062
0.3375,2034.605051,2036.508112,2047.187359,2047.500000,2045.448406,2051.586126,2055.484680,2056.322136,2053.819650,2053.341425,2039.432955
0.3387,2034.360073,2036.358980,2047.142978,2047.500000,2044.736086,2050.814647,2054.979738,2056.069822,2053.530980,2053.133488,2039.287070
0.3400,2034.201242,2036.294649,2047.116350,2047.500000,2044.025165,2049.965632,2054.337944,2055.675858,2053.135725,2052.883964,2039.203294
0.3412,2034.124518,2036.315118,2047.113391,2047.500000,2043.312844,2049.081726,2053.653677,2055.149097,2052.753792,2052.653634,2039.184516
0.3425,2034.123172,2036.423312,2047.137061,2047.500000,2042.629913,2048.255972,2053.035478,2054.564791,2052.478446,2052.477687,2039.227849
0.3438,2034.186436,2036.616306,2047.191304,2047.500000,2042.028149,2047.604673,2052.554132,2054.033604,2052.331890,2052.365721,2039.331846
0.3450,2034.304886,2036.888252,2047.277108,2047.500000,2041.559333,2047.178227,2052.214359,2053.648493,2052.283038,2052.343328,2039.490732
0.3463,2034.467756,2037.233302,2047.396444,2047.500000,2041.226264,2046.922360,2051.964248,2053.405032,2052.269715,2052.413707,2039.698727
0.3475,2034.661584,2037.642683,2047.547340,2047.500000,2040.970165,2046.716890,2051.733013,2053.219116,2052.251951,2052.548066,2039.950055
0.3488,2034.878294,2038.101775,2047.727823,2047.500000,2040.705668,2046.453269,2051.464025,2052.984509,2052.229745,2052.669629,2040.236049
0.3500,2035.107119,2038.601805,2047.935922,2047.500000,2040.373999,2046.115989,2051.152566,2052.674650,2052.220863,2052.708017,2040.548042
0.3513,2035.341328,2039.125228,2048.164731,2047.500000,2039.997547,2045.798093,2050.855264,2052.364790,2052.229745,2052.656833,2040.877368
0.3525,2035.576883,2039.657424,2048.411293,2047.500000,2039.665877,2045.631392,2050.638187,2052.170022,2052.251951,2052.583255,2041.215361
0.3538,2035.808400,2040.183771,2048.666731,2047.500000,2039.469954,2045.681790,2050.539086,2052.170022,2052.256392,2052.564061,2041.553353
0.3550,2036.035878,2040.692574,2048.925128,2047.500000,2039.437766,2045.910520,2050.539086,2052.307245,2052.216422,2052.637639,2041.884124
0.3563,2036.259319,2041.172135,2049.179580,2047.500000,2039.507739,2046.193525,2050.586277,2052.431189,2052.132042,2052.752804,2042.203339
0.3575,2036.481414,2041.604909,2049.423184,2047.500000,2039.580510,2046.422255,2050.605153,2052.400203,2052.038779,2052.832780,2042.502332
0.3588,2036.706200,2041.987973,2049.648048,2047.500000,2039.607100,2046.573450,2050.581558,2052.192154,2051.976604,2052.839178,2042.779659
0.3600,2036.937717,2042.309630,2049.850229,2047.500000,2039.622494,2046.716890,2050.543805,2051.913281,2051.976604,2052.823182,2043.032432
0.3613,2037.184040,2042.569879,2050.021836,2047.500000,2039.730252,2046.957251,2050.529648,2051.714086,2052.043220,2052.851974,2043.259204
0.3625,2037.449208,2042.768722,2050.159911,2047.500000,2040.024136,2047.313915,2050.567401,2051.678673,2052.132042,2052.951144,2043.458533
0.3638,2037.738604,2042.903233,2050.260508,2047.500000,2040.529338,2047.732607,2050.642906,2051.762778,2052.198658,2053.059911,2043.634752
0.3650,2038.057613,2042.982185,2050.318697,2047.500000,2041.192677,2048.104778,2050.718411,2051.855736,2052.203099,2053.082304,2043.786415
0.3663,2038.410272,2043.005578,2050.333491,2047.500000,2041.935785,2048.403290,2050.779759,2051.846883,2052.158688,2052.976736,2043.916412
0.3675,2038.797928,2042.988033,2050.301931,2047.500000,2042.697086,2048.678541,2050.831669,2051.745072,2052.074308,2052.797590,2044.029076
0.3688,2039.220581,2042.932474,2050.224017,2047.500000,2043.451390,2049.031328,2050.893017,2051.612275,2051.963281,2052.618445,2044.125852
0.3700,2039.676885,2042.850598,2050.098764,2047.500000,2044.183303,2049.484911,2050.935489,2051.492758,2051.790079,2052.471289,2044.208184
0.3713,2040.162801,2042.751177,2049.926170,2047.500000,2044.853639,2049.926864,2050.888298,2051.342255,2051.505850,2052.276149,2044.280404
0.3725,2040.672945,2042.648832,2049.709196,2047.500000,2045.398026,2050.140087,2050.661782,2051.054528,2051.066184,2051.917858,2044.343958
0.3738,2041.200588,2042.549410,2049.450799,2047.500000,2045.773078,2049.973386,2050.222908,2050.545474,2050.497726,2051.335634,2044.400290
0.3750,2041.739000,2042.461686,2049.154924,2047.500000,2045.995591,2049.453897,2049.637742,2049.850504,2049.871534,2050.606256,2044.450845
0.3762,2042.278757,2042.394430,2048.827490,2047.500000,2046.157927,2048.794845,2049.028981,2049.111268,2049.280871,2049.896072,2044.499955
0.3775,2042.814476,2042.356416,2048.476386,2047.500000,2046.386038,2048.279233,2048.533478,2048.487123,2048.774589,2049.329844,2044.549065
0.3787,2043.339427,2042.350568,2048.109501,2047.500000,2046.766688,2048.062133,2048.207862,2048.044467,2048.334922,2048.907572,2044.599619
0.3800,2043.845534,2042.382734,2047.736700,2047.500000,2047.290082,2048.100901,2047.995503,2047.708048,2047.904138,2048.526888,2044.654507
0.3812,2044.330104,2042.449989,2047.368829,2047.500000,2047.852661,2048.182313,2047.773707,2047.340644,2047.437825,2048.059830,2044.716617
0.3825,2044.790445,2042.555259,2047.014766,2047.500000,2048.307483,2048.116408,2047.419776,2046.853722,2046.931542,2047.471209,2044.785949
0.3837,2045.222520,2042.692694,2046.684373,2047.500000,2048.548188,2047.848910,2046.895958,2046.247283,2046.394172,2046.825005,2044.866836
0.3850,2045.629021,2042.853522,2046.387512,2047.500000,2048.557984,2047.480616,2046.254163,2045.618712,2045.839038,2046.210792,2044.956389
0.3862,2046.007255,2043.037744,2046.130101,2047.500000,2048.415241,2047.158843,2045.598212,2045.065392,2045.243934,2045.673355,2045.058943
0.3875,2046.361260,2043.227814,2045.920031,2047.500000,2048.238910,2046.965004,2045.022484,2044.622736,2044.599978,2045.177506,2045.170162
0.3887,2046.692383,2043.417884,2045.759272,2047.500000,2048.118557,2046.868085,2044.588329,2044.255331,2043.929375,2044.684855,2045.290049
0.3900,2047.001970,2043.599181,2045.648812,2047.500000,2048.080772,2046.775042,2044.276870,2043.914486,2043.312066,2044.185807,2045.417157
0.3912,2047.294058,2043.762934,2045.589638,2047.500000,2048.103163,2046.662615,2044.059792,2043.578067,2042.850194,2043.728346,2045.548599
0.3925,2047.568647,2043.903293,2045.578789,2047.500000,2048.160541,2046.577326,2043.904063,2043.277061,2042.579288,2043.363657,2045.682929
0.3937,2047.828431,2044.017335,2045.611335,2047.500000,2048.264100,2046.612217,2043.786086,2043.042453,2042.450497,2043.088541,2045.818704
0.3950,2048.074754,2044.099211,2045.682345,2047.500000,2048.455825,2046.790549,2043.705861,2042.878671,2042.366117,2042.861410,2045.951590
0.3962,2048.306271,2044.157694,2045.783928,2047.500000,2048.766503,2047.027033,2043.630356,2042.754727,2042.237326,2042.624681,2046.083031
0.3975,2048.524327,2044.189860,2045.911154,2047.500000,2049.179340,2047.162720,2043.517098,2042.644063,2042.037477,2042.378356,2046.207251
0.3987,2048.724886,2044.201556,2046.055147,2047.500000,2049.627165,2047.089061,2043.309459,2042.542252,2041.810982,2042.170420,2046.327137
0.4000,2048.909291,2044.204481,2046.209988,2047.500000,2050.033005,2046.825440,2043.002719,2042.484707,2041.602252,2042.032861,2046.441246
0.4012,2049.072161,2044.195708,2046.370746,2047.500000,2050.363275,2046.515298,2042.648788,2042.497986,2041.415727,2041.943289,2046.546688
0.4025,2049.210802,2044.186936,2046.531504,2047.500000,2050.636168,2046.340843,2042.346767,2042.573238,2041.220319,2041.834522,2046.643463
0.4037,2049.322522,2044.181087,2046.688318,2047.500000,2050.896466,2046.387364,2042.172161,2042.657343,2040.989383,2041.629784,2046.730128
0.4050,2049.404630,2044.172315,2046.837241,2047.500000,2051.158163,2046.627724,2042.162723,2042.679475,2040.754006,2041.329075,2046.805238
0.4062,2049.454433,2044.166467,2046.975316,2047.500000,2051.380676,2046.930113,2042.257105,2042.599797,2040.589687,2040.996376,2046.864458
0.4075,2049.471931,2044.151846,2047.102542,2047.500000,2051.512224,2047.182104,2042.375082,2042.436015,2040.554158,2040.721260,2046.909235
0.4088,2049.455779,2044.128453,2047.215961,2047.500000,2051.538814,2047.348806,2042.460025,2042.245672,2040.634097,2040.545313,2046.933790
0.4100,2049.407322,2044.087514,2047.314585,2047.500000,2051.519221,2047.488370,2042.521373,2042.095169,2040.749565,2040.446143,2046.936679
0.4113,2049.330598,2044.023183,2047.397430,2047.500000,2051.554208,2047.666702,2042.596878,2042.011065,2040.785094,2040.375765,2046.916457
0.4125,2049.228300,2043.929610,2047.463509,2047.500000,2051.712346,2047.899308,2042.719574,2042.006638,2040.691831,2040.302187,2046.874569
0.4138,2049.107158,2043.803872,2047.511835,2047.500000,2051.974043,2048.120285,2042.865866,2042.073037,2040.500865,2040.254202,2046.808126
0.4150,2048.969863,2043.643043,2047.542409,2047.500000,2052.230142,2048.236588,2042.974404,2042.196980,2040.314340,2040.266998,2046.718573
0.4163,2048.823146,2043.450049,2047.554244,2047.500000,2052.356093,2048.178437,2042.988562,2042.369616,2040.221077,2040.353372,2046.608797
0.4175,2048.671044,2043.227814,2047.546354,2047.500000,2052.284721,2047.965214,2042.903618,2042.573238,2040.256606,2040.465338,2046.481689
0.4188,2048.516251,2042.985109,2047.518739,2047.500000,2052.042616,2047.682209,2042.757327,2042.763580,2040.389838,2040.538915,2046.340137
0.4200,2048.358766,2042.721935,2047.473371,2047.500000,2051.722142,2047.434095,2042.620474,2042.869817,2040.549717,2040.526119,2046.184140
0.4213,2048.199935,2042.449989,2047.409265,2047.500000,2051.421260,2047.286777,2042.521373,2042.847685,2040.665185,2040.436546,2046.019477
0.4225,2048.037065,2042.172195,2047.331352,2047.500000,2051.186152,2047.259640,2042.441149,2042.692755,2040.700713,2040.330978,2045.846148
0.4238,2047.868812,2041.888552,2047.240617,2047.500000,2051.026615,2047.333298,2042.360924,2042.462574,2040.660744,2040.266998,2045.665596
0.4250,2047.689790,2041.596137,2047.142978,2047.500000,2050.934251,2047.500000,2042.280700,2042.245672,2040.554158,2040.266998,2045.476378
0.4263,2047.495962,2041.300797,2047.041395,2047.500000,2050.916058,2047.767498,2042.238228,2042.104022,2040.394279,2040.298988,2045.278493
0.4275,2047.287328,2040.987913,2046.940797,2047.500000,2050.990229,2048.131915,2042.266543,2042.059757,2040.189990,2040.308585,2045.071942
0.4288,2047.059849,2040.657484,2046.846118,2047.500000,2051.158163,2048.562238,2042.351486,2042.059757,2039.923525,2040.238207,2044.853836
0.4300,2046.816218,2040.303662,2046.763273,2047.500000,2051.384874,2048.984807,2042.464744,2042.042051,2039.594886,2040.075056,2044.627063
0.4313,2046.559126,2039.926446,2046.694235,2047.500000,2051.614384,2049.337594,2042.554406,2041.975652,2039.226276,2039.844726,2044.393068
0.4325,2046.297997,2039.528761,2046.644923,2047.500000,2051.807508,2049.574077,2042.629912,2041.887121,2038.862108,2039.604799,2044.156185
0.4338,2046.038213,2039.116456,2046.615336,2047.500000,2051.967046,2049.690381,2042.719574,2041.834002,2038.591203,2039.425654,2043.923634
0.4350,2045.791890,2038.707074,2046.607446,2047.500000,2052.125183,2049.702011,2042.865866,2041.878268,2038.484617,2039.345678,2043.702639
0.4363,2045.567104,2038.318162,2046.621253,2047.500000,2052.305713,2049.605092,2043.035752,2042.055330,2038.568997,2039.387265,2043.503310
0.4375,2045.374622,2037.973112,2046.656758,2047.500000,2052.489041,2049.380238,2043.158448,2042.334204,2038.817698,2039.534421,2043.334314
0.4387,2045.219828,2037.692394,2046.710015,2047.500000,2052.637382,2049.019698,2043.149010,2042.661769,2039.133014,2039.739158,2043.207206
0.4400,2045.105416,2037.496475,2046.779053,2047.500000,2052.719950,2048.573868,2042.969685,2042.949496,2039.395037,2039.931100,2043.126318
0.4412,2045.027346,2037.397054,2046.860911,2047.500000,2052.757735,2048.151299,2042.658226,2043.122131,2039.514946,2040.043066,2043.095986
0.4425,2044.976197,2037.399978,2046.952632,2047.500000,2052.805316,2047.864417,2042.294857,2043.113278,2039.466095,2040.036668,2043.110430
0.4437,2044.939854,2037.490627,2047.050271,2047.500000,2052.899080,2047.798512,2041.992836,2042.936216,2039.301775,2039.924702,2043.160984
0.4450,2044.898128,2037.642683,2047.150868,2047.500000,2053.018033,2047.957460,2041.841826,2042.697182,2039.128573,2039.783945,2043.230316
0.4462,2044.824096,2037.818132,2047.251465,2047.500000,2053.100600,2048.306370,2041.917331,2042.546679,2039.053075,2039.719964,2043.298204
0.4475,2044.693531,2037.961416,2047.347132,2047.500000,2053.104799,2048.810352,2042.242947,2042.586518,2039.110808,2039.799940,2043.334314
0.4487,2044.479513,2038.002354,2047.436880,2047.500000,2053.058617,2049.457774,2042.776203,2042.785713,2039.230718,2039.982284,2043.306870
0.4500,2044.156466,2037.876615,2047.514794,2047.500000,2053.055818,2050.229253,2043.366088,2042.980481,2039.257364,2040.135838,2043.182651
0.4512,2043.704201,2037.505248,2047.578900,2047.500000,2053.178970,2051.055007,2043.828557,2042.993761,2039.066398,2040.110246,2042.929878
0.4525,2043.107910,2036.829769,2047.623281,2047.500000,2053.422474,2051.799349,2044.036197,2042.798992,2038.657819,2039.854323,2042.519665
0.4537,2042.362211,2035.794619,2047.643992,2047.500000,2053.678573,2052.291700,2044.026759,2042.582091,2038.209270,2039.480037,2041.933234
0.4550,2041.469794,2034.367633,2047.635116,2047.500000,2053.826915,2052.392497,2043.932377,2042.613077,2037.956129,2039.185726,2041.157584
0.4562,2040.442775,2032.542962,2047.592707,2047.500000,2053.824116,2052.028079,2043.908782,2043.038027,2038.036068,2039.137741,2040.192716
0.4575,2039.302689,2030.338151,2047.511835,2047.500000,2053.765339,2051.202325,2043.937096,2043.724144,2038.373590,2039.326484,2039.051630
0.4587,2038.077803,2027.799987,2047.390526,2047.500000,2053.825516,2049.996646,2043.889905,2044.357142,2038.724435,2039.588804,2037.755992
0.4600,2036.805806,2024.995725,2047.227796,2047.500000,2054.168381,2048.589375,2043.630356,2044.684707,2038.835462,2039.710367,2036.343357
0.4612,2035.524388,2022.024786,2047.026601,2047.500000,2054.880701,2047.282900,2043.266987,2044.751106,2038.635613,2039.566411,2034.858500
0.4625,2034.275274,2018.995365,2046.794833,2047.500000,2055.994664,2046.519175,2043.144291,2044.844064,2038.235917,2039.156935,2033.356311
0.4637,2033.101537,2016.036123,2046.544326,2047.500000,2057.545255,2046.767289,2043.668109,2045.277867,2037.791809,2038.523528,2031.893121
0.4650,2032.038175,2013.269875,2046.291846,2047.500000,2059.591251,2048.364522,2045.036641,2046.105633,2037.334378,2037.650193,2030.533929
0.4662,2031.121530,2010.825283,2046.062050,2047.500000,2062.159243,2051.349643,2047.065845,2047.088330,2036.748156,2036.450558,2029.336511
0.4675,2030.379868,2008.822239,2045.881567,2047.500000,2065.135874,2055.435769,2049.345159,2047.911670,2035.908793,2034.911825,2028.361532
0.4688,2029.834727,2007.363087,2045.784915,2047.500000,2068.214664,2060.084029,2051.515935,2048.504829,2034.896228,2033.222738,2027.660992
0.4700,2029.503604,2006.538476,2045.807598,2047.500000,2070.972981,2064.712904,2053.493229,2049.124548,2034.056865,2031.789574,2027.282556
0.4713,2029.395922,2006.409814,2045.986109,2047.500000,2073.045567,2068.880443,2055.461084,2050.204629,2033.883663,2031.085788,2027.263779
0.4725,2029.518410,2007.029734,2046.358911,2047.500000,2074.282681,2072.419943,2057.636579,2052.046078,2034.736349,2031.428084,2027.634993
0.4738,2029.873762,2008.421630,2046.958550,2047.500000,2074.810274,2075.467092,2060.123533,2054.679882,2036.752597,2032.877243,2028.417864
0.4750,2030.463322,2010.600124,2047.811654,2047.500000,2074.923630,2078.448336,2062.969137,2058.008655,2039.896879,2035.305306,2029.625393
0.4763,2031.291129,2013.559366,2048.936963,2047.500000,2074.923630,2081.983960,2066.347997,2062.032399,2044.164752,2038.597105,2031.261913
0.4775,2032.357184,2017.281811,2050.339408,2047.500000,2074.969811,2086.709755,2070.694267,2066.985720,2049.689450,2042.765439,2033.325979
0.4788,2033.666869,2021.749916,2052.012085,2047.500000,2075.032787,2093.028907,2076.527048,2073.138640,2056.648615,2047.906277,2035.808924
0.4800,2035.230954,2026.934438,2053.932310,2047.500000,2074.947420,2100.891017,2084.077572,2080.508863,2065.064453,2054.080400,2038.699194
0.4813,2037.058860,2032.809059,2056.061619,2047.500000,2074.475805,2109.691308,2093.043820,2088.728987,2074.697146,2061.204636,2041.976566
0.4825,2039.161356,2039.347464,2058.345770,2047.500000,2073.354846,2118.406310,2102.666019,2097.241263,2085.178084,2069.138225,2045.617930
0.4838,2041.553248,2046.526257,2060.714737,2047.500000,2071.307450,2125.869112,2112.193837,2105.669435,2096.249685,2077.810789,2049.598732
0.4850,2044.243958,2054.313275,2063.089623,2047.500000,2068.057926,2131.141533,2121.334691,2114.128592,2107.965242,2087.324698,2053.882860
0.4863,2047.240217,2062.673426,2065.377718,2047.500000,2063.401955,2133.719592,2130.357568,2123.096804,2120.613425,2097.852699,2058.429871
0.4875,2050.539332,2071.557000,2067.487303,2047.500000,2057.305949,2133.618795,2139.781566,2133.030007,2134.389641,2109.413986,2063.194988
0.4888,2054.133227,2080.899666,2069.319751,2047.500000,2050.002217,2131.242329,2149.786011,2143.883934,2149.080719,2121.669462,2068.117546
0.4900,2057.997673,2090.613700,2070.785316,2047.500000,2041.986166,2127.163956,2159.861242,2154.888364,2163.891705,2133.883351,2073.132547
0.4913,2062.097675,2100.576286,2071.802138,2047.500000,2033.904340,2121.907042,2168.803895,2164.675489,2177.521366,2145.038361,2078.159103
0.4925,2066.382083,2110.641218,2072.299207,2047.500000,2026.366900,2115.770099,2175.136897,2171.642896,2188.437529,2154.056421,2083.107661
0.4938,2070.788979,2120.621349,2072.224252,2047.500000,2019.778288,2108.745374,2177.609694,2174.405070,2195.210169,2160.003414,2087.878556
0.4950,2075.241640,2130.294445,2071.545713,2047.500000,2014.260255,2100.596382,2175.561614,2172.103258,2196.804515,2162.239534,2092.360568
0.4963,2079.657958,2139.423648,2070.252742,2047.500000,2009.695248,2090.989720,2168.987939,2164.617944,2192.856399,2160.560044,2096.445367
0.4975,2083.946404,2147.751633,2068.356187,2047.500000,2005.829966,2079.661769,2158.421924,2152.617538,2183.805488,2155.268852,2100.018844
0.4988,2088.016793,2155.021075,2065.889581,2047.500000,2002.381720,2066.523360,2144.698845,2137.407875,2170.846429,2147.165715,2102.975557
0.5000,2091.781633,2160.983422,2062.908153,2047.500000,1999.105607,2051.632648,2128.738924,2120.560385,2155.573571,2137.351097,2105.224507
0.5012,2095.162856,2165.428133,2059.485872,2047.500000,1995.837890,2035.156332,2111.325527,2103.429595,2139.461349,2126.842290,2106.692030
0.5025,2098.091813,2168.188533,2055.711501,2047.500000,1992.549182,2017.342527,2092.911686,2086.714902,2123.380215,2116.218319,2107.330461
0.5038,2100.517356,2169.165199,2051.683664,2047.500000,1989.404617,1998.555650,2073.520995,2070.301214,2107.370138,2105.443993,2107.122465
0.5050,2102.404487,2168.323044,2047.511835,2047.500000,1986.791843,1979.346204,2052.799524,2053.462577,2090.844896,2094.010667,2106.079599
0.5062,2103.735709,2165.708851,2043.307460,2047.500000,1985.251048,1960.431393,2030.298961,2035.362370,2073.067271,2081.348914,2104.249529
0.5075,2104.509675,2161.442513,2039.180998,2047.500000,1985.300029,1942.582697,2005.868296,2015.562364,2053.686418,2067.244400,2101.710251
0.5088,2104.743884,2155.719948,2035.236006,2047.500000,1987.204681,1926.509567,1980.054940,1994.407830,2033.026535,2052.042620,2098.567209
0.5100,2104.467949,2148.792631,2031.572094,2047.500000,1990.847450,1912.812902,1954.293494,1973.071808,2012.113511,2036.591315,2094.944622
0.5112,2103.720903,2140.952979,2028.273095,2047.500000,1995.724535,1902.023823,1930.693386,1953.276228,1992.395136,2021.965359,2090.982598
0.5125,2102.548512,2132.522649,2025.410017,2047.500000,2001.106821,1894.669571,1911.496178,1936.835981,1975.394699,2009.169248,2086.827023
0.5138,2101.000580,2123.817447,2023.037104,2047.500000,2006.260996,1891.192099,1898.391299,1925.123302,1962.315732,1998.941955,2082.618005
0.5150,2099.128255,2115.144412,2021.192820,2047.500000,2010.631480,1891.707711,1891.968634,1918.718068,1953.802190,1991.676963,2078.488429
0.5162,2096.979994,2106.769640,2019.894918,2047.500000,2013.941180,1895.801591,1891.605265,1917.301569,1949.827428,1987.425455,2074.548071
0.5175,2094.601562,2098.912443,2019.148328,2047.500000,2016.201292,1902.558819,1895.819402,1919.877827,1949.729724,1985.883523,2070.887930
0.5188,2092.033341,2091.733650,2018.937271,2047.500000,2017.659520,1910.835744,1902.893299,1925.141008,1952.452103,1986.452950,2067.567225
0.5200,2089.310326,2085.326832,2019.232159,2047.500000,2018.716105,1919.686434,1911.397077,1931.869380,1956.799916,1988.349974,2064.623512
0.5212,2086.466168,2079.732929,2019.990584,2047.500000,2019.816073,1928.634042,1920.443549,1939.190912,1961.760597,1990.787633,2062.062568
0.5225,2083.529135,2074.928547,2021.160274,2047.500000,2021.303688,1937.651433,1929.636313,1946.614254,1966.703514,1993.222093,2059.871394
0.5238,2080.523454,2070.846431,2022.679096,2047.500000,2023.325894,1946.916938,1938.857391,1953.984478,1971.437701,1995.496602,2058.016769
0.5250,2077.476046,2067.390083,2024.478998,2047.500000,2025.781930,1956.542983,1948.144536,1961.354701,1976.123035,1997.799902,2056.448136
0.5262,2074.409794,2064.433765,2026.491931,2047.500000,2028.391905,1966.467540,1957.606287,1968.862148,1981.061511,2000.474290,2055.112055
0.5275,2071.348926,2061.845891,2028.644910,2047.500000,2030.824149,1976.527785,1967.365340,1976.617483,1986.475182,2003.737298,2053.946414
0.5288,2068.317671,2059.500721,2030.869886,2047.500000,2032.830961,1986.533755,1977.445290,1984.589719,1992.341843,2007.531345,2052.896326
0.5300,2065.338911,2057.290061,2033.101765,2047.500000,2034.349365,1996.291610,1987.629060,1992.561955,1998.399470,2011.565319,2051.909792
0.5312,2062.440912,2055.120341,2035.282359,2047.500000,2035.513708,2005.557115,1997.458899,2000.215478,2004.288336,2015.490527,2050.947813
0.5325,2059.646558,2052.935999,2037.358412,2047.500000,2036.594083,2014.004619,2006.387394,2007.253710,2009.741977,2019.118224,2049.980057
0.5337,2056.981422,2050.696098,2039.287513,2047.500000,2037.891374,2021.331734,2014.055896,2013.592545,2014.711540,2022.470806,2048.989189
0.5350,2054.467042,2048.406487,2041.036130,2047.500000,2039.618295,2027.398895,2020.431370,2019.333794,2019.316935,2025.682630,2047.969434
0.5363,2052.123607,2046.078862,2042.578622,2047.500000,2041.811234,2032.295268,2025.754490,2024.636814,2023.678071,2028.824075,2046.928013
0.5375,2049.969962,2043.762934,2043.903153,2047.500000,2044.310653,2036.257337,2030.289523,2029.523737,2027.750537,2031.783176,2045.877925
0.5387,2048.018221,2041.508412,2045.003806,2047.500000,2046.842258,2039.533217,2034.102538,2033.804221,2031.338926,2034.339199,2044.843725
0.5400,2046.277806,2039.376705,2045.885512,2047.500000,2049.137357,2042.266347,2037.113310,2037.194967,2034.198979,2036.303402,2043.847080
0.5413,2044.754103,2037.432144,2046.561092,2047.500000,2051.049006,2044.542017,2039.260490,2039.527764,2036.255197,2037.675785,2042.915434
0.5425,2043.445763,2035.721515,2047.051257,2047.500000,2052.582804,2046.472653,2040.699809,2040.935410,2037.636371,2038.638693,2042.073342
0.5437,2042.346058,2034.288680,2047.380664,2047.500000,2053.826915,2048.255972,2041.827668,2041.798590,2038.626731,2039.438450,2041.338136
0.5450,2041.448258,2033.154109,2047.577914,2047.500000,2054.866707,2050.093566,2043.068786,2042.577664,2039.492741,2040.231809,2040.727149
0.5463,2040.736209,2032.329499,2047.674566,2047.500000,2055.730168,2052.070724,2044.668553,2043.586920,2040.380956,2041.031566,2040.246160
0.5475,2040.193759,2031.794379,2047.700208,2047.500000,2056.393507,2054.090526,2046.589218,2044.901609,2041.313582,2041.748148,2039.896612
0.5487,2039.802065,2031.525357,2047.685415,2047.500000,2056.844130,2055.920367,2048.594826,2046.406639,2042.237326,2042.320774,2039.671283
0.5500,2039.540936,2031.478570,2047.654841,2047.500000,2057.105827,2057.347022,2050.439985,2047.876258,2043.116659,2042.752643,2039.558619
0.5513,2039.391527,2031.604309,2047.630185,2047.500000,2057.212186,2058.269695,2051.950090,2049.120121,2043.907170,2043.107735,2039.541286
0.5525,2039.333647,2031.844089,2047.628212,2047.500000,2057.175800,2058.711648,2053.021321,2049.996580,2044.542244,2043.414841,2039.601952
0.5537,2039.349800,2032.154049,2047.660758,2047.500000,2056.975678,2058.715525,2053.549858,2050.439236,2044.941941,2043.645171,2039.720393
0.5550,2039.425177,2032.481554,2047.731768,2047.500000,2056.600626,2058.292956,2053.464914,2050.461369,2045.044085,2043.741142,2039.879279
0.5563,2039.547666,2032.791515,2047.842228,2047.500000,2056.105220,2057.451695,2052.780648,2050.173643,2044.901971,2043.680361,2040.061275
0.5575,2039.705151,2033.066385,2047.988193,2047.500000,2055.612614,2056.288661,2051.676384,2049.735413,2044.644388,2043.523608,2040.253382
0.5587,2039.888211,2033.285696,2048.162759,2047.500000,2055.259952,2055.040337,2050.468300,2049.341449,2044.440099,2043.376453,2040.445489
0.5600,2040.091461,2033.455297,2048.355077,2047.500000,2055.113010,2054.028498,2049.482013,2049.115695,2044.409011,2043.325269,2040.634707
0.5613,2040.306826,2033.583960,2048.555285,2047.500000,2055.134002,2053.512886,2048.901566,2049.111268,2044.555567,2043.389249,2040.815258
0.5625,2040.527574,2033.683381,2048.751549,2047.500000,2055.226366,2053.559407,2048.745837,2049.288331,2044.830914,2043.523608,2040.987143
0.5637,2040.748323,2033.774030,2048.934005,2047.500000,2055.299137,2054.028498,2048.892128,2049.576057,2045.177318,2043.670764,2041.151806
0.5650,2040.962341,2033.870527,2049.093777,2047.500000,2055.321528,2054.668167,2049.222463,2049.890343,2045.554809,2043.811521,2041.309247
0.5663,2041.161554,2033.990417,2049.222975,2047.500000,2055.310333,2055.253560,2049.675495,2050.173643,2045.945624,2043.974671,2041.458022
0.5675,2041.339229,2034.133700,2049.317655,2047.500000,2055.283743,2055.680006,2050.222908,2050.386118,2046.309792,2044.182608,2041.596685
0.5687,2041.488638,2034.306225,2049.375844,2047.500000,2055.238961,2055.970765,2050.812793,2050.536621,2046.594021,2044.425734,2041.723794
0.5700,2041.603051,2034.499219,2049.394582,2047.500000,2055.152195,2056.160727,2051.360206,2050.651711,2046.762781,2044.652865,2041.833569
0.5713,2041.679774,2034.703910,2049.377816,2047.500000,2055.008051,2056.257646,2051.737732,2050.775655,2046.807192,2044.809618,2041.920234
0.5725,2041.713425,2034.899828,2049.327518,2047.500000,2054.813528,2056.203372,2051.865147,2050.930585,2046.762781,2044.860802,2041.980899
0.5737,2041.704003,2035.078202,2049.246645,2047.500000,2054.582618,2055.939750,2051.742451,2051.063381,2046.687283,2044.825613,2042.009788
0.5750,2041.655546,2035.218561,2049.142103,2047.500000,2054.311125,2055.451276,2051.430992,2051.098794,2046.611785,2044.752035,2042.005454
0.5763,2041.570746,2035.317982,2049.017836,2047.500000,2053.999048,2054.811607,2051.034589,2050.983703,2046.545169,2044.697652,2041.969344
0.5775,2041.457680,2035.364768,2048.880747,2047.500000,2053.674375,2054.137048,2050.638187,2050.735816,2046.496317,2044.697652,2041.901457
0.5787,2041.324423,2035.364768,2048.733796,2047.500000,2053.414077,2053.543900,2050.288975,2050.465796,2046.478553,2044.768030,2041.807570
0.5800,2041.179052,2035.320906,2048.583887,2047.500000,2053.314716,2053.098071,2050.019988,2050.297586,2046.518522,2044.908787,2041.694906
0.5813,2041.033681,2035.247802,2048.434963,2047.500000,2053.426672,2052.795682,2049.840663,2050.293160,2046.620667,2045.107127,2041.572130
0.5825,2040.895040,2035.160078,2048.289985,2047.500000,2053.702364,2052.609596,2049.741562,2050.408250,2046.767223,2045.337457,2041.447911
0.5837,2040.771205,2035.069429,2048.151910,2047.500000,2054.010243,2052.508800,2049.713247,2050.541047,2046.922660,2045.567787,2041.330914
0.5850,2040.670253,2034.993401,2048.022711,2047.500000,2054.210365,2052.497170,2049.732124,2050.611872,2047.055892,2045.766127,2041.228360
0.5863,2040.593530,2034.946615,2047.902389,2047.500000,2054.228557,2052.574705,2049.793472,2050.625152,2047.175801,2045.919680,2041.147473
0.5875,2040.545073,2034.931994,2047.793902,2047.500000,2054.088612,2052.741407,2049.902011,2050.642858,2047.300152,2046.044442,2041.089697
0.5887,2040.524882,2034.958311,2047.695277,2047.500000,2053.864700,2052.962383,2050.062459,2050.726963,2047.446707,2046.175602,2041.059364
0.5900,2040.530266,2035.019719,2047.606515,2047.500000,2053.619796,2053.171729,2050.270099,2050.868613,2047.615468,2046.329156,2041.052142
0.5913,2040.558533,2035.119140,2047.526629,2047.500000,2053.362298,2053.291910,2050.487176,2051.001410,2047.779788,2046.505102,2041.068030
0.5925,2040.608336,2035.247802,2047.455619,2047.500000,2053.071212,2053.245388,2050.642906,2051.036822,2047.930784,2046.671452,2041.104141
0.5938,2040.675637,2035.396934,2047.392499,2047.500000,2052.738143,2052.981767,2050.661782,2050.952717,2048.041811,2046.783418,2041.154695
0.5950,2040.756399,2035.560687,2047.337269,2047.500000,2052.395277,2052.512677,2050.496614,2050.775655,2048.112868,2046.818607,2041.218249
0.5962,2040.847929,2035.736136,2047.289929,2047.500000,2052.099993,2051.907899,2050.152122,2050.576460,2048.121751,2046.773821,2041.290470
0.5975,2040.951573,2035.914509,2047.250479,2047.500000,2051.890076,2051.272107,2049.675495,2050.381691,2048.059576,2046.655457,2041.371357
0.5988,2041.064640,2036.101655,2047.219906,2047.500000,2051.754329,2050.709974,2049.151677,2050.164790,2047.926343,2046.469913,2041.460911
0.6000,2041.187128,2036.294649,2047.199194,2047.500000,2051.642373,2050.264144,2048.656174,2049.894769,2047.744259,2046.229986,2041.560575
0.6012,2041.323077,2036.499340,2047.190318,2047.500000,2051.509425,2049.915234,2048.236176,2049.549498,2047.544411,2045.958069,2041.670351
0.6025,2041.472486,2036.718651,2047.194263,2047.500000,2051.354086,2049.605092,2047.905841,2049.173240,2047.349003,2045.698947,2041.796014
0.6038,2041.638047,2036.964280,2047.211029,2047.500000,2051.219739,2049.298826,2047.655730,2048.845674,2047.153596,2045.516603,2041.937567
0.6050,2041.822453,2037.233302,2047.241603,2047.500000,2051.160962,2049.015821,2047.476405,2048.615493,2046.944866,2045.455821,2042.099341
0.6062,2042.027050,2037.528641,2047.286970,2047.500000,2051.201546,2048.806475,2047.367866,2048.509256,2046.749458,2045.519802,2042.281337
0.6075,2042.254528,2037.853222,2047.347132,2047.500000,2051.316301,2048.717309,2047.344270,2048.487123,2046.611785,2045.650962,2042.484999
0.6088,2042.503544,2038.204120,2047.419128,2047.500000,2051.446450,2048.732816,2047.396180,2048.522536,2046.598462,2045.775724,2042.708883
0.6100,2042.776787,2038.572563,2047.502959,2047.500000,2051.531817,2048.783214,2047.481124,2048.566801,2046.718371,2045.836505,2042.951545
0.6112,2043.070221,2038.955627,2047.596652,2047.500000,2051.541613,2048.779337,2047.547191,2048.580081,2046.918219,2045.823709,2043.207206
0.6125,2043.382500,2039.341615,2047.696263,2047.500000,2051.480037,2048.694048,2047.533034,2048.526962,2047.060334,2045.769326,2043.472978
0.6138,2043.708239,2039.718831,2047.798833,2047.500000,2051.373679,2048.550607,2047.419776,2048.372032,2047.033687,2045.718141,2043.741638
0.6150,2044.043400,2040.081426,2047.901403,2047.500000,2051.250527,2048.391659,2047.231013,2048.119719,2046.807192,2045.692549,2044.008855
0.6162,2044.379907,2040.417703,2048.001014,2047.500000,2051.127375,2048.221081,2047.018654,2047.831992,2046.460788,2045.692549,2044.265960
0.6175,2044.709684,2040.721815,2048.093721,2047.500000,2051.012620,2048.011735,2046.815734,2047.592958,2046.114384,2045.705345,2044.508621
0.6188,2045.024654,2040.990837,2048.175580,2047.500000,2050.904863,2047.720976,2046.631690,2047.464588,2045.870125,2045.714942,2044.729617
0.6200,2045.315396,2041.215997,2048.244617,2047.500000,2050.805502,2047.364313,2046.452365,2047.429175,2045.732452,2045.708544,2044.926057
0.6212,2045.573834,2041.403143,2048.297875,2047.500000,2050.714538,2047.003772,2046.258883,2047.424748,2045.639189,2045.676554,2045.090720
0.6225,2045.787852,2041.546426,2048.334366,2047.500000,2050.637568,2046.732398,2046.051243,2047.389336,2045.537045,2045.606175,2045.222161
0.6238,2045.954760,2041.651696,2048.351132,2047.500000,2050.585788,2046.612217,2045.862480,2047.340644,2045.439341,2045.481413,2045.318937
0.6250,2046.065134,2041.718951,2048.350146,2047.500000,2050.584389,2046.619971,2045.735065,2047.336217,2045.403812,2045.305467,2045.378158
0.6262,2046.118975,2041.754041,2048.329435,2047.500000,2050.664157,2046.678123,2045.697312,2047.438028,2045.488193,2045.094331,2045.401268
0.6275,2046.113591,2041.759889,2048.290971,2047.500000,2050.833491,2046.716890,2045.730346,2047.619517,2045.679159,2044.902389,2045.388269
0.6288,2046.053020,2041.742344,2048.236727,2047.500000,2051.069998,2046.697506,2045.796413,2047.783300,2045.874566,2044.777627,2045.343492
0.6300,2045.942645,2041.704330,2048.168676,2047.500000,2051.299508,2046.631601,2045.853042,2047.823139,2045.972270,2044.752035,2045.271271
0.6312,2045.789198,2041.648772,2048.089776,2047.500000,2051.440852,2046.534682,2045.881356,2047.716901,2045.941183,2044.828812,2045.175940
0.6325,2045.604792,2041.581516,2048.002000,2047.500000,2051.445051,2046.426132,2045.886075,2047.566398,2045.843479,2044.969569,2045.063276
0.6338,2045.401542,2041.511336,2047.911265,2047.500000,2051.328896,2046.290445,2045.876637,2047.473441,2045.772422,2045.119923,2044.940501
0.6350,2045.191562,2041.435308,2047.819544,2047.500000,2051.169359,2046.123743,2045.853042,2047.473441,2045.785745,2045.219093,2044.816281
0.6362,2044.989658,2041.365129,2047.729796,2047.500000,2051.051805,2045.929904,2045.786975,2047.482294,2045.834597,2045.235088,2044.694951
0.6375,2044.806598,2041.303722,2047.644978,2047.500000,2051.011221,2045.739942,2045.631245,2047.353923,2045.816832,2045.183904,2044.585175
0.6388,2044.654497,2041.256935,2047.568051,2047.500000,2051.014020,2045.580994,2045.381134,2047.008652,2045.648072,2045.097530,2044.492733
0.6400,2044.541430,2041.227694,2047.500000,2047.500000,2050.986031,2045.472444,2045.064956,2046.499597,2045.341637,2045.030350,2044.423401
0.6412,2044.474129,2041.218921,2047.441811,2047.500000,2050.867078,2045.406539,2044.758216,2045.968410,2045.004116,2045.001559,2044.378624
0.6425,2044.456630,2041.236466,2047.394471,2047.500000,2050.647364,2045.379401,2044.541138,2045.539034,2044.746533,2045.007957,2044.362736
0.6438,2044.490281,2041.277404,2047.356994,2047.500000,2050.360477,2045.371648,2044.451476,2045.211468,2044.626624,2045.020753,2044.374291
0.6450,2044.571043,2041.344660,2047.328393,2047.500000,2050.041402,2045.371648,2044.451476,2044.928168,2044.599978,2045.020753,2044.414735
0.6462,2044.694877,2041.435308,2047.308668,2047.500000,2049.701335,2045.363894,2044.484509,2044.618309,2044.591096,2045.020753,2044.479733
0.6475,2044.856401,2041.546426,2047.295847,2047.500000,2049.338878,2045.332880,2044.508105,2044.330583,2044.551126,2045.049545,2044.566398
0.6488,2045.047537,2041.675089,2047.288943,2047.500000,2048.977820,2045.274728,2044.526981,2044.166800,2044.497833,2045.139117,2044.670396
0.6500,2045.260209,2041.815448,2047.287957,2047.500000,2048.678337,2045.201069,2044.588329,2044.233198,2044.471187,2045.276676,2044.787393
0.6512,2045.487688,2041.961656,2047.291902,2047.500000,2048.521599,2045.127411,2044.734620,2044.503218,2044.515597,2045.427030,2044.914501
0.6525,2045.720551,2042.113712,2047.301764,2047.500000,2048.552387,2045.073136,2044.951698,2044.848490,2044.599978,2045.535797,2045.045943
0.6538,2045.952068,2042.265768,2047.317544,2047.500000,2048.738514,2045.030491,2045.164056,2045.118510,2044.675476,2045.583782,2045.178829
0.6550,2046.178200,2042.414899,2047.340228,2047.500000,2048.979219,2044.999477,2045.282033,2045.238027,2044.697681,2045.580583,2045.311715
0.6562,2046.392219,2042.558183,2047.370802,2047.500000,2049.165346,2044.968463,2045.263157,2045.260160,2044.675476,2045.551792,2045.440268
0.6575,2046.594123,2042.695618,2047.409265,2047.500000,2049.238117,2044.941325,2045.131023,2045.273440,2044.648830,2045.507006,2045.565931
0.6587,2046.778529,2042.830129,2047.456605,2047.500000,2049.219925,2044.921941,2044.975293,2045.348691,2044.657712,2045.443025,2045.688707
0.6600,2046.948128,2042.955868,2047.511835,2047.500000,2049.183539,2044.906434,2044.866755,2045.468209,2044.719887,2045.353452,2045.805704
0.6613,2047.098884,2043.078682,2047.574955,2047.500000,2049.196134,2044.871543,2044.833721,2045.578873,2044.804267,2045.251083,2045.918368
0.6625,2047.234832,2043.201496,2047.643006,2047.500000,2049.280101,2044.801761,2044.838440,2045.640844,2044.875324,2045.174307,2046.026699
0.6637,2047.353283,2043.321387,2047.714016,2047.500000,2049.401853,2044.685458,2044.843159,2045.676257,2044.919735,2045.164710,2046.129252
0.6650,2047.456927,2043.441277,2047.785026,2047.500000,2049.495616,2044.534263,2044.833721,2045.724949,2044.955264,2045.225491,2046.227472
0.6663,2047.545765,2043.558243,2047.852091,2047.500000,2049.505412,2044.390822,2044.819564,2045.817907,2044.995233,2045.318263,2046.318470
0.6675,2047.618450,2043.675209,2047.912252,2047.500000,2049.408850,2044.278396,2044.805407,2045.932997,2045.044085,2045.382244,2046.402246
0.6687,2047.676330,2043.789251,2047.961564,2047.500000,2049.231120,2044.212490,2044.791249,2046.021529,2045.075173,2045.363049,2046.475911
0.6700,2047.718057,2043.897445,2047.997069,2047.500000,2049.028200,2044.200860,2044.739339,2046.065794,2045.057409,2045.257481,2046.536577
0.6713,2047.744977,2043.993942,2048.016794,2047.500000,2048.861665,2044.243505,2044.649677,2046.079074,2044.981910,2045.100729,2046.585687
0.6725,2047.755745,2044.078742,2048.019753,2047.500000,2048.766503,2044.352054,2044.536419,2046.096780,2044.866442,2044.931181,2046.618908
0.6737,2047.750361,2044.148922,2048.006931,2047.500000,2048.739913,2044.542017,2044.470352,2046.141046,2044.759856,2044.784025,2046.636241
0.6750,2047.730171,2044.201556,2047.978330,2047.500000,2048.737114,2044.805638,2044.508105,2046.189738,2044.697681,2044.656064,2046.637686
0.6763,2047.696520,2044.236646,2047.936908,2047.500000,2048.710525,2045.092519,2044.654396,2046.194165,2044.693240,2044.556894,2046.623242
0.6775,2047.649409,2044.251267,2047.887595,2047.500000,2048.640552,2045.344510,2044.866755,2046.127766,2044.733210,2044.499312,2046.597242
0.6787,2047.594222,2044.251267,2047.833352,2047.500000,2048.546789,2045.515089,2045.093270,2046.021529,2044.795385,2044.512108,2046.559687
0.6800,2047.532305,2044.233722,2047.781081,2047.500000,2048.479615,2045.627515,2045.300910,2045.937424,2044.857560,2044.604880,2046.516355
0.6813,2047.469041,2044.210329,2047.734727,2047.500000,2048.481015,2045.747695,2045.503830,2045.946277,2044.933058,2044.768030,2046.471578
0.6825,2047.407124,2044.178163,2047.699222,2047.500000,2048.559384,2045.976425,2045.739784,2046.096780,2045.035203,2044.969569,2046.428246
0.6837,2047.350591,2044.148922,2047.680483,2047.500000,2048.700728,2046.371857,2046.032367,2046.375654,2045.159553,2045.161511,2046.393580
0.6850,2047.303480,2044.125528,2047.682456,2047.500000,2048.878459,2046.930113,2046.386298,2046.738632,2045.297227,2045.324661,2046.370469
0.6863,2047.267137,2044.113832,2047.706126,2047.500000,2049.077181,2047.573659,2046.782700,2047.128169,2045.408253,2045.446224,2046.363247
0.6875,2047.244255,2044.122604,2047.753466,2047.500000,2049.287098,2048.213328,2047.212136,2047.473441,2045.470429,2045.526200,2046.373358
0.6887,2047.233486,2044.151846,2047.824476,2047.500000,2049.490018,2048.787091,2047.651010,2047.730181,2045.488193,2045.551792,2046.403691
0.6900,2047.236178,2044.201556,2047.916197,2047.500000,2049.649556,2049.279442,2048.080447,2047.871831,2045.492634,2045.523001,2046.451356
0.6913,2047.246947,2044.277584,2048.024684,2047.500000,2049.713930,2049.705888,2048.462692,2047.893964,2045.532604,2045.452622,2046.516355
0.6925,2047.264445,2044.374081,2048.144020,2047.500000,2049.655154,2050.112950,2048.759994,2047.836419,2045.625866,2045.391841,2046.594353
0.6937,2047.281943,2044.491047,2048.269273,2047.500000,2049.490018,2050.531642,2048.953476,2047.743461,2045.772422,2045.401438,2046.681018
0.6950,2047.296750,2044.616786,2048.391568,2047.500000,2049.289897,2050.992979,2049.090329,2047.677062,2045.923418,2045.526200,2046.769127
0.6963,2047.300788,2044.751297,2048.504987,2047.500000,2049.149952,2051.516344,2049.227182,2047.685916,2046.052209,2045.746933,2046.852903
0.6975,2047.291366,2044.885808,2048.602625,2047.500000,2049.144354,2052.121122,2049.425384,2047.778873,2046.149913,2045.990059,2046.926568
0.6987,2047.264445,2045.011547,2048.676594,2047.500000,2049.295495,2052.799559,2049.670776,2047.960362,2046.225411,2046.172403,2046.984345
0.7000,2047.217334,2045.122664,2048.723934,2047.500000,2049.558591,2053.516763,2049.935044,2048.199397,2046.305351,2046.252379,2047.021899
0.7013,2047.150033,2045.216237,2048.739714,2047.500000,2049.839881,2054.214583,2050.170998,2048.464990,2046.394172,2046.245981,2047.034899
0.7025,2047.062541,2045.286417,2048.722948,2047.500000,2050.041402,2054.842622,2050.402233,2048.717304,2046.465229,2046.197996,2047.023344
0.7037,2046.957551,2045.330279,2048.674621,2047.500000,2050.104377,2055.393124,2050.675939,2048.929779,2046.505199,2046.153209,2046.987234
0.7050,2046.840446,2045.350748,2048.597694,2047.500000,2050.031606,2055.912613,2051.053466,2049.102415,2046.527404,2046.124418,2046.929457
0.7063,2046.716612,2045.347824,2048.497097,2047.500000,2049.883264,2056.474746,2051.515935,2049.252918,2046.567374,2046.114821,2046.854348
0.7075,2046.590085,2045.327355,2048.376774,2047.500000,2049.736322,2057.145429,2052.002000,2049.403421,2046.682842,2046.140413,2046.764794
0.7087,2046.468942,2045.295189,2048.245604,2047.500000,2049.652355,2057.955676,2052.431436,2049.571630,2046.887132,2046.242782,2046.669463
0.7100,2046.357222,2045.257175,2048.109501,2047.500000,2049.652355,2058.886103,2052.794805,2049.757546,2047.149155,2046.441122,2046.575576
0.7113,2046.260308,2045.222085,2047.975372,2047.500000,2049.736322,2059.870806,2053.162893,2049.952315,2047.406737,2046.716238,2046.486022
0.7125,2046.180892,2045.195768,2047.852091,2047.500000,2049.895859,2060.859385,2053.620644,2050.155936,2047.606586,2046.984957,2046.409468
0.7137,2046.121667,2045.186996,2047.743603,2047.500000,2050.130967,2061.813072,2054.210529,2050.381691,2047.739818,2047.151306,2046.350248
0.7150,2046.081286,2045.201616,2047.653855,2047.500000,2050.429050,2062.716362,2054.875919,2050.660564,2047.837522,2047.176898,2046.311248
0.7163,2046.059750,2045.242555,2047.587776,2047.500000,2050.741127,2063.569254,2055.541309,2051.001410,2047.948549,2047.109719,2046.296804
0.7175,2046.053020,2045.312734,2047.544381,2047.500000,2050.983232,2064.402762,2056.140631,2051.390947,2048.086222,2047.058534,2046.304026
0.7188,2046.057058,2045.420928,2047.525642,2047.500000,2051.078395,2065.244023,2056.706921,2051.767205,2048.246101,2047.109719,2046.334359
0.7200,2046.067826,2045.558363,2047.529587,2047.500000,2051.007023,2066.131806,2057.292086,2052.068211,2048.419303,2047.276068,2046.386358
0.7212,2046.079940,2045.733812,2047.554244,2047.500000,2050.834890,2067.104877,2057.924443,2052.262979,2048.605828,2047.500000,2046.455690
0.7225,2046.088016,2045.938503,2047.596652,2047.500000,2050.685149,2068.143855,2058.556799,2052.360364,2048.827882,2047.688743,2046.540910
0.7238,2046.089363,2046.169511,2047.653855,2047.500000,2050.661358,2069.202216,2059.094774,2052.409056,2049.094346,2047.810306,2046.637686
0.7250,2046.079940,2046.426836,2047.720920,2047.500000,2050.791507,2070.210178,2059.486458,2052.475454,2049.391898,2047.887082,2046.743128
0.7262,2046.058404,2046.707555,2047.796861,2047.500000,2051.016819,2071.117345,2059.788479,2052.603825,2049.676127,2047.986252,2046.854348
0.7275,2046.026099,2046.999970,2047.876747,2047.500000,2051.242130,2071.935346,2060.128252,2052.798593,2049.911504,2048.155801,2046.968456
0.7288,2045.980334,2047.307006,2047.959592,2047.500000,2051.393271,2072.726209,2060.633194,2053.068613,2050.084706,2048.398927,2047.082565
0.7300,2045.926493,2047.622814,2048.043423,2047.500000,2051.456246,2073.555840,2061.298583,2053.405032,2050.222379,2048.680441,2047.198118
0.7312,2045.867268,2047.941547,2048.126267,2047.500000,2051.446450,2074.439746,2062.006445,2053.803422,2050.351170,2048.939563,2047.310782
0.7325,2045.805351,2048.260280,2048.206154,2047.500000,2051.390472,2075.335282,2062.610487,2054.237225,2050.484403,2049.134703,2047.424891
0.7338,2045.744779,2048.579012,2048.284067,2047.500000,2051.296709,2076.180420,2063.039923,2054.671028,2050.617635,2049.256266,2047.536110
0.7350,2045.690938,2048.894821,2048.359022,2047.500000,2051.174957,2076.940269,2063.346663,2055.042860,2050.728662,2049.307451,2047.648775
0.7362,2045.646519,2049.201857,2048.431018,2047.500000,2051.046207,2077.661350,2063.648684,2055.308453,2050.830807,2049.317048,2047.759994
0.7375,2045.614215,2049.505968,2048.498083,2047.500000,2050.951045,2078.401815,2064.040368,2055.463383,2050.937392,2049.307451,2047.872658
0.7388,2045.595370,2049.798384,2048.562189,2047.500000,2050.923056,2079.212062,2064.516995,2055.551914,2051.066184,2049.307451,2047.985323
0.7400,2045.592678,2050.087875,2048.621364,2047.500000,2050.965039,2080.076584,2065.017217,2055.658151,2051.212739,2049.349038,2048.100876
0.7412,2045.604792,2050.368593,2048.676594,2047.500000,2051.047607,2080.937229,2065.493844,2055.844067,2051.363736,2049.470601,2048.216429
0.7425,2045.631713,2050.646388,2048.726893,2047.500000,2051.141370,2081.766860,2065.956313,2056.122940,2051.519173,2049.691334,2048.334871
0.7438,2045.673440,2050.921258,2048.773246,2047.500000,2051.233734,2082.573230,2066.456536,2056.454932,2051.674611,2049.995242,2048.456201
0.7450,2045.725935,2051.196128,2048.815655,2047.500000,2051.341491,2083.414492,2066.999229,2056.733806,2051.825607,2050.324742,2048.578976
0.7462,2045.789198,2051.473923,2048.856091,2047.500000,2051.475839,2084.298398,2067.518328,2056.884309,2051.954399,2050.599858,2048.706085
0.7475,2045.860538,2051.760490,2048.893568,2047.500000,2051.624180,2085.186180,2067.895854,2056.875456,2052.021015,2050.734217,2048.838971
0.7488,2045.938607,2052.058753,2048.931046,2047.500000,2051.736136,2085.984797,2068.089336,2056.755939,2052.012133,2050.718222,2048.976190
0.7500,2046.022061,2052.371638,2048.970496,2047.500000,2051.759927,2086.624466,2068.155404,2056.627568,2051.967722,2050.609455,2049.120631
0.7512,2046.110899,2052.702067,2049.012904,2047.500000,2051.667563,2087.109063,2068.240347,2056.574450,2051.954399,2050.539077,2049.275183
0.7525,2046.202429,2053.052965,2049.060244,2047.500000,2051.471640,2087.508372,2068.462144,2056.618715,2052.043220,2050.631848,2049.438402
0.7538,2046.299343,2053.424332,2049.113502,2047.500000,2051.209943,2087.896050,2068.806636,2056.720526,2052.243069,2050.942154,2049.613176
0.7550,2046.398949,2053.819093,2049.173663,2047.500000,2050.924455,2088.279851,2069.179443,2056.826763,2052.491769,2051.425207,2049.798061
0.7562,2046.501247,2054.234322,2049.241714,2047.500000,2050.647364,2088.621008,2069.453150,2056.924148,2052.718264,2051.978639,2049.993056
0.7575,2046.606237,2054.667097,2049.315683,2047.500000,2050.408058,2088.857491,2069.608879,2057.034812,2052.895907,2052.490484,2050.196718
0.7588,2046.712574,2055.114492,2049.395569,2047.500000,2050.237325,2088.981548,2069.712699,2057.211874,2053.077991,2052.896760,2050.407603
0.7600,2046.820256,2055.570660,2049.479400,2047.500000,2050.154757,2089.020316,2069.863710,2057.464188,2053.326691,2053.184673,2050.622820
0.7612,2046.926592,2056.029752,2049.566190,2047.500000,2050.150559,2089.000932,2070.061911,2057.729782,2053.637566,2053.373415,2050.840926
0.7625,2047.030236,2056.482995,2049.652979,2047.500000,2050.167352,2088.900136,2070.222360,2057.924551,2053.926236,2053.482182,2051.056144
0.7638,2047.131188,2056.927467,2049.737797,2047.500000,2050.125369,2088.663652,2070.231798,2057.986522,2054.090556,2053.552561,2051.265584
0.7650,2047.224064,2057.354393,2049.818669,2047.500000,2049.961633,2088.248837,2070.052473,2057.924551,2054.094997,2053.629337,2051.466357
0.7662,2047.310210,2057.757926,2049.893624,2047.500000,2049.667749,2087.663443,2069.764609,2057.805033,2054.006176,2053.763697,2051.654131
0.7675,2047.388280,2058.135141,2049.962661,2047.500000,2049.296894,2086.985006,2069.481464,2057.667810,2053.957324,2053.974832,2051.827460
0.7688,2047.454235,2058.474343,2050.025781,2047.500000,2048.938635,2086.267802,2069.236072,2057.512880,2054.023940,2054.217959,2051.984901
0.7700,2047.509422,2058.772607,2050.082984,2047.500000,2048.664343,2085.515707,2068.948209,2057.278273,2054.170495,2054.422696,2052.122120
0.7712,2047.552495,2059.029932,2050.134268,2047.500000,2048.503406,2084.682199,2068.514053,2056.919721,2054.268199,2054.525065,2052.239118
0.7725,2047.583454,2059.234623,2050.180622,2047.500000,2048.433433,2083.720757,2067.905292,2056.472639,2054.228229,2054.528264,2052.333005
0.7738,2047.599606,2059.389603,2050.224017,2047.500000,2048.408243,2082.631382,2067.225745,2056.043262,2054.063910,2054.480279,2052.403781
0.7750,2047.599606,2059.483176,2050.262481,2047.500000,2048.380254,2081.456718,2066.640580,2055.746683,2053.890708,2054.438692,2052.448558
0.7762,2047.582108,2059.512417,2050.296999,2047.500000,2048.310282,2080.220025,2066.248896,2055.618312,2053.824091,2054.438692,2052.464446
0.7775,2047.544419,2059.474403,2050.327573,2047.500000,2048.166138,2078.901920,2065.956313,2055.591753,2053.890708,2054.461085,2052.448558
0.7788,2047.482502,2059.360361,2050.351243,2047.500000,2047.924033,2077.432620,2065.578787,2055.529781,2053.992852,2054.493075,2052.398003
0.7800,2047.393664,2059.173215,2050.366037,2047.500000,2047.575570,2075.769481,2064.955869,2055.339439,2054.006176,2054.531463,2052.311339
0.7812,2047.273867,2058.904193,2050.369982,2047.500000,2047.143140,2073.947395,2064.092278,2055.016300,2053.881825,2054.589046,2052.182786
0.7825,2047.119074,2058.553295,2050.359133,2047.500000,2046.684120,2072.078786,2063.143743,2054.648896,2053.690859,2054.672221,2052.010901
0.7837,2046.926592,2058.120521,2050.329546,2047.500000,2046.261486,2070.256700,2062.308466,2054.356743,2053.553186,2054.736201,2051.792794
0.7850,2046.695075,2057.608794,2050.280233,2047.500000,2045.922819,2068.512149,2061.661952,2054.215093,2053.562068,2054.742599,2051.528467
0.7863,2046.424524,2057.023964,2050.207251,2047.500000,2045.668119,2066.786981,2061.138135,2054.237225,2053.704182,2054.691415,2051.219363
0.7875,2046.117629,2056.374802,2050.109612,2047.500000,2045.451205,2065.003663,2060.600160,2054.374449,2053.899590,2054.640230,2050.866926
0.7887,2045.777084,2055.667157,2049.987318,2047.500000,2045.216097,2063.127301,2059.953646,2054.564791,2054.063910,2054.675420,2050.478379
0.7900,2045.410964,2054.918574,2049.841353,2047.500000,2044.929210,2061.212172,2059.226908,2054.759560,2054.174936,2054.819376,2050.056610
0.7913,2045.028692,2054.137825,2049.673691,2047.500000,2044.601738,2059.343564,2058.504889,2054.910063,2054.272640,2055.020915,2049.613176
0.7925,2044.638344,2053.342456,2049.488276,2047.500000,2044.279865,2057.564121,2057.834780,2054.980888,2054.410313,2055.161672,2049.156741
0.7937,2044.254726,2052.547087,2049.289054,2047.500000,2044.013969,2055.866092,2057.178829,2054.945475,2054.579074,2055.177667,2048.697418
0.7950,2043.889953,2051.766338,2049.081942,2047.500000,2043.833440,2054.202953,2056.461529,2054.799399,2054.730071,2055.072099,2048.245317
0.7963,2043.558830,2051.011907,2048.873844,2047.500000,2043.732680,2052.555321,2055.649847,2054.564791,2054.783364,2054.928143,2047.814882
0.7975,2043.270780,2050.295489,2048.671663,2047.500000,2043.683699,2050.969718,2054.800413,2054.308050,2054.707865,2054.806580,2047.413335
0.7987,2043.039263,2049.628783,2048.481317,2047.500000,2043.644514,2049.512049,2054.035923,2054.082296,2054.530222,2054.701012,2047.049343
0.8000,2042.873701,2049.014711,2048.309710,2047.500000,2043.581539,2048.201697,2053.417724,2053.918513,2054.312610,2054.557056,2046.733017
0.8013,2042.778133,2048.459122,2048.162759,2047.500000,2043.463985,2046.976635,2052.884468,2053.798996,2054.112761,2054.323527,2046.467245
0.8025,2042.756597,2047.964940,2048.043423,2047.500000,2043.276459,2045.736065,2052.280426,2053.661773,2053.935118,2054.016420,2046.254916
0.8037,2042.806400,2047.523393,2047.955647,2047.500000,2043.031555,2044.406329,2051.468744,2053.453724,2053.726388,2053.690119,2046.094586
0.8050,2042.924850,2047.134481,2047.899430,2047.500000,2042.765659,2042.995181,2050.435266,2053.126159,2053.437718,2053.379813,2045.986256
0.8063,2043.103872,2046.792355,2047.875760,2047.500000,2042.551543,2041.611171,2049.302688,2052.692356,2053.046903,2053.059911,2045.922701
0.8075,2043.331351,2046.485319,2047.879705,2047.500000,2042.467576,2040.351217,2048.245614,2052.196581,2052.598355,2052.676027,2045.898146
0.8087,2043.595172,2046.210449,2047.907320,2047.500000,2042.572535,2039.261842,2047.396180,2051.714086,2052.172011,2052.208969,2045.903924
0.8100,2043.880530,2045.953124,2047.954660,2047.500000,2042.874817,2038.304277,2046.777981,2051.302416,2051.847813,2051.732314,2045.929923
0.8113,2044.172618,2045.710419,2048.011863,2047.500000,2043.322641,2037.400988,2046.324950,2050.983703,2051.639082,2051.364426,2045.966034
0.8125,2044.457976,2045.476487,2048.073996,2047.500000,2043.826443,2036.517082,2045.966300,2050.735816,2051.496968,2051.159688,2046.002144
0.8137,2044.721798,2045.242555,2048.133171,2047.500000,2044.292460,2035.675820,2045.635964,2050.501208,2051.332648,2051.073314,2046.032477
0.8150,2044.954661,2045.005698,2048.180511,2047.500000,2044.653518,2034.950862,2045.296191,2050.213482,2051.057301,2050.958149,2046.046921
0.8163,2045.149835,2044.762994,2048.212071,2047.500000,2044.887226,2034.380976,2044.899788,2049.819518,2050.657605,2050.689431,2046.042588
0.8175,2045.301936,2044.520289,2048.221934,2047.500000,2045.014576,2033.942900,2044.394847,2049.328170,2050.169086,2050.254363,2046.015144
0.8187,2045.409618,2044.274660,2048.206154,2047.500000,2045.081750,2033.559098,2043.771929,2048.779276,2049.667245,2049.748917,2045.963145
0.8200,2045.476920,2044.029031,2048.164731,2047.500000,2045.134929,2033.175297,2043.097100,2048.248089,2049.209814,2049.320247,2045.889480
0.8213,2045.507878,2043.786327,2048.095694,2047.500000,2045.202102,2032.799249,2042.511935,2047.805433,2048.841205,2049.051529,2045.797037
0.8225,2045.510570,2043.552395,2048.001014,2047.500000,2045.293067,2032.492984,2042.153285,2047.486720,2048.574740,2048.917169,2045.687262
0.8237,2045.493072,2043.330159,2047.884637,2047.500000,2045.403623,2032.299145,2042.054184,2047.265392,2048.397097,2048.837194,2045.568820
0.8250,2045.464805,2043.119620,2047.748535,2047.500000,2045.526775,2032.209979,2042.143847,2047.101610,2048.308276,2048.744422,2045.444601
0.8263,2045.435193,2042.926626,2047.597639,2047.500000,2045.652726,2032.155704,2042.271262,2046.942253,2048.263865,2048.619660,2045.320381
0.8275,2045.410964,2042.751177,2047.435894,2047.500000,2045.775877,2032.066538,2042.313734,2046.760764,2048.215013,2048.475704,2045.199051
0.8287,2045.397504,2042.593273,2047.270204,2047.500000,2045.880836,2031.954111,2042.242947,2046.570422,2048.090663,2048.312553,2045.087831
0.8300,2045.401542,2042.452913,2047.102542,2047.500000,2045.949409,2031.880453,2042.101375,2046.380080,2047.846404,2048.085422,2044.985278
0.8313,2045.421733,2042.327175,2046.938825,2047.500000,2045.963403,2031.923097,2041.940926,2046.203018,2047.482236,2047.739927,2044.895724
0.8325,2045.458075,2042.216057,2046.781025,2047.500000,2045.911624,2032.074292,2041.761601,2046.039235,2047.060334,2047.272869,2044.819170
0.8337,2045.507878,2042.119560,2046.634074,2047.500000,2045.799668,2032.244870,2041.520928,2045.893158,2046.669519,2046.761025,2044.754172
0.8350,2045.568450,2042.034760,2046.497972,2047.500000,2045.645728,2032.310775,2041.200031,2045.773641,2046.385290,2046.325957,2044.700728
0.8363,2045.633059,2041.964580,2046.377650,2047.500000,2045.486191,2032.221609,2040.855538,2045.702816,2046.252058,2046.073234,2044.657396
0.8375,2045.696322,2041.906097,2046.272121,2047.500000,2045.363039,2032.051031,2040.581832,2045.693963,2046.260940,2046.025248,2044.624174
0.8387,2045.755548,2041.859310,2046.184345,2047.500000,2045.322455,2031.938604,2040.459136,2045.733802,2046.371967,2046.114821,2044.599619
0.8400,2045.806697,2041.830069,2046.114322,2047.500000,2045.389629,2031.992879,2040.463855,2045.773641,2046.505199,2046.239583,2044.583731
0.8413,2045.845731,2041.821296,2046.064023,2047.500000,2045.561761,2032.221609,2040.511046,2045.755935,2046.594021,2046.309962,2044.577953
0.8425,2045.873998,2041.835917,2046.032463,2047.500000,2045.801067,2032.527875,2040.487450,2045.645271,2046.602903,2046.306763,2044.580842
0.8438,2045.890150,2041.873931,2046.021614,2047.500000,2046.055767,2032.795373,2040.374193,2045.468209,2046.522963,2046.268374,2044.595286
0.8450,2045.898227,2041.944111,2046.030490,2047.500000,2046.285277,2032.989212,2040.246777,2045.277867,2046.385290,2046.249180,2044.624174
0.8462,2045.903611,2042.043532,2046.061064,2047.500000,2046.475602,2033.155913,2040.199587,2045.136217,2046.243176,2046.290767,2044.668951
0.8475,2045.910341,2042.180967,2046.113335,2047.500000,2046.636539,2033.345875,2040.270373,2045.056538,2046.132149,2046.383539,2044.733950
0.8488,2045.925147,2042.353492,2046.187304,2047.500000,2046.775085,2033.570729,2040.407226,2045.007846,2046.056650,2046.482709,2044.822059
0.8500,2045.957452,2042.566955,2046.282970,2047.500000,2046.874446,2033.749061,2040.511046,2044.959154,2045.998916,2046.553088,2044.936168
0.8512,2046.012639,2042.815508,2046.401320,2047.500000,2046.909432,2033.822719,2040.529922,2044.888329,2045.945624,2046.575481,2045.076276
0.8525,2046.098785,2043.102075,2046.541367,2047.500000,2046.887041,2033.803336,2040.511046,2044.830784,2045.905654,2046.585078,2045.248161
0.8538,2046.221273,2043.423732,2046.703112,2047.500000,2046.859052,2033.811089,2040.567675,2044.839637,2045.910095,2046.620267,2045.448934
0.8550,2046.384143,2043.777554,2046.885567,2047.500000,2046.909432,2033.985544,2040.761157,2044.945874,2045.976711,2046.713039,2045.682929
0.8562,2046.588739,2044.157694,2047.087748,2047.500000,2047.080165,2034.388729,2041.058459,2045.114084,2046.069974,2046.853796,2045.944368
0.8575,2046.837754,2044.558303,2047.305709,2047.500000,2047.323669,2034.931479,2041.336884,2045.264587,2046.118826,2046.988156,2046.233250
0.8588,2047.129842,2044.970608,2047.537477,2047.500000,2047.518193,2035.443214,2041.473738,2045.317706,2046.074415,2047.068131,2046.546688
0.8600,2047.458273,2045.394610,2047.777136,2047.500000,2047.543383,2035.772740,2041.450142,2045.260160,2045.936741,2047.055335,2046.876014
0.8612,2047.817663,2045.815688,2048.021725,2047.500000,2047.376848,2035.896797,2041.360480,2045.136217,2045.767981,2046.968961,2047.218340
0.8625,2048.198589,2046.230918,2048.263356,2047.500000,2047.106754,2035.908427,2041.327446,2045.012273,2045.639189,2046.841000,2047.563554
0.8638,2048.594321,2046.628603,2048.495124,2047.500000,2046.867448,2035.939441,2041.398232,2044.928168,2045.581455,2046.713039,2047.905880
0.8650,2048.990053,2046.999970,2048.711113,2047.500000,2046.730302,2036.055745,2041.530367,2044.852917,2045.532604,2046.581879,2048.233762
0.8662,2049.375017,2047.342096,2048.902445,2047.500000,2046.649134,2036.226323,2041.605872,2044.728973,2045.426018,2046.434724,2048.539977
0.8675,2049.737099,2047.646208,2049.061231,2047.500000,2046.517586,2036.377518,2041.544524,2044.516498,2045.235052,2046.261976,2048.814416
0.8688,2050.066876,2047.906457,2049.183525,2047.500000,2046.265685,2036.489944,2041.351042,2044.259758,2045.012998,2046.073234,2049.051299
0.8700,2050.353580,2048.116996,2049.260453,2047.500000,2045.938213,2036.598494,2041.119807,2044.029576,2044.839796,2045.900486,2049.243406
0.8712,2050.589135,2048.277824,2049.290040,2047.500000,2045.655524,2036.780703,2040.954639,2043.896780,2044.777621,2045.772525,2049.384959
0.8725,2050.768156,2048.388942,2049.268343,2047.500000,2045.508582,2037.067584,2040.893291,2043.870220,2044.786503,2045.676554,2049.474512
0.8738,2050.889299,2048.447425,2049.196347,2047.500000,2045.481993,2037.412618,2040.898010,2043.887926,2044.790944,2045.577384,2049.510622
0.8750,2050.953908,2048.456198,2049.074052,2047.500000,2045.466599,2037.726637,2040.931044,2043.892353,2044.733210,2045.439826,2049.494734
0.8762,2050.963330,2048.424032,2048.907376,2047.500000,2045.377034,2037.943737,2040.968796,2043.883500,2044.644388,2045.273477,2049.431180
0.8775,2050.924296,2048.353852,2048.701250,2047.500000,2045.238488,2038.067794,2041.063178,2043.896780,2044.617742,2045.126321,2049.327182
0.8788,2050.847572,2048.254431,2048.463564,2047.500000,2045.185309,2038.168590,2041.270817,2043.980884,2044.706564,2045.052744,2049.188518
0.8800,2050.739890,2048.131617,2048.203195,2047.500000,2045.353243,2038.312031,2041.582276,2044.131387,2044.884207,2045.065540,2049.025300
0.8812,2050.614709,2047.997106,2047.930990,2047.500000,2045.763282,2038.521377,2041.922050,2044.255331,2045.044085,2045.129520,2048.847637
0.8825,2050.481452,2047.859671,2047.655827,2047.500000,2046.290875,2038.777245,2042.143847,2044.259758,2045.079614,2045.177506,2048.665641
0.8838,2050.353580,2047.725160,2047.389540,2047.500000,2046.754093,2039.036989,2042.153285,2044.104828,2044.973028,2045.164710,2048.489423
0.8850,2050.237821,2047.608194,2047.141006,2047.500000,2047.036782,2039.292856,2041.959803,2043.856941,2044.795385,2045.084734,2048.329093
0.8862,2050.143599,2047.508772,2046.917127,2047.500000,2047.155735,2039.560354,2041.676658,2043.644466,2044.666594,2044.985564,2048.190429
0.8875,2050.076298,2047.435669,2046.726782,2047.500000,2047.211713,2039.858866,2041.478457,2043.578067,2044.631065,2044.921584,2048.079209
0.8888,2050.038609,2047.388882,2046.573913,2047.500000,2047.290082,2040.176762,2041.473738,2043.688731,2044.666594,2044.924783,2047.999767
0.8900,2050.030533,2047.371337,2046.461481,2047.500000,2047.386645,2040.475274,2041.667220,2043.896780,2044.688799,2044.988763,2047.954990
0.8912,2050.052069,2047.385958,2046.388498,2047.500000,2047.428628,2040.707881,2041.964522,2044.087122,2044.657712,2045.091132,2047.941990
0.8925,2050.097834,2047.423972,2046.355952,2047.500000,2047.350259,2040.859076,2042.228790,2044.162373,2044.586655,2045.190302,2047.959323
0.8938,2050.161098,2047.488303,2046.358911,2047.500000,2047.166931,2040.952118,2042.389239,2044.091548,2044.515597,2045.260680,2048.002656
0.8950,2050.236475,2047.567255,2046.392443,2047.500000,2046.959812,2041.018024,2042.445868,2043.901206,2044.457863,2045.273477,2048.066210
0.8962,2050.314545,2047.660828,2046.452605,2047.500000,2046.824065,2041.091682,2042.445868,2043.648892,2044.391247,2045.203098,2048.142764
0.8975,2050.388576,2047.760250,2046.530518,2047.500000,2046.790479,2041.169218,2042.426991,2043.401005,2044.266897,2045.027151,2048.226540
0.8988,2050.451840,2047.862595,2046.621253,2047.500000,2046.824065,2041.254507,2042.412834,2043.215089,2044.067049,2044.761632,2048.311760
0.9000,2050.496259,2047.959092,2046.715933,2047.500000,2046.861851,2041.347550,2042.398677,2043.148691,2043.853877,2044.457724,2048.389758
0.9012,2050.519141,2048.046816,2046.808640,2047.500000,2046.866049,2041.471607,2042.389239,2043.241649,2043.725086,2044.195404,2048.457646
0.9025,2050.515103,2048.119920,2046.893457,2047.500000,2046.854853,2041.653815,2042.441149,2043.498389,2043.747291,2044.045050,2048.509644
0.9038,2050.484144,2048.178403,2046.966440,2047.500000,2046.866049,2041.898053,2042.601597,2043.861367,2043.929375,2044.032254,2048.542866
0.9050,2050.424919,2048.222266,2047.021670,2047.500000,2046.919228,2042.181058,2042.884742,2044.233198,2044.195840,2044.125026,2048.555866
0.9062,2050.338773,2048.242735,2047.057175,2047.500000,2046.992000,2042.448555,2043.238673,2044.489939,2044.435658,2044.246589,2048.547199
0.9075,2050.229745,2048.248583,2047.071968,2047.500000,2047.042380,2042.650148,2043.564289,2044.543057,2044.573331,2044.326564,2048.516867
0.9087,2050.100526,2048.233962,2047.065065,2047.500000,2047.052176,2042.766451,2043.771929,2044.374848,2044.591096,2044.326564,2048.466312
0.9100,2049.955155,2048.198872,2047.038436,2047.500000,2047.061972,2042.832357,2043.828557,2044.025150,2044.515597,2044.256186,2048.398425
0.9113,2049.799016,2048.152086,2046.992082,2047.500000,2047.155735,2042.906015,2043.776648,2043.600200,2044.417894,2044.166613,2048.313204
0.9125,2049.636147,2048.087755,2046.928962,2047.500000,2047.409036,2043.037826,2043.696423,2043.219516,2044.355719,2044.109030,2048.217873
0.9137,2049.471931,2048.008802,2046.854994,2047.500000,2047.828871,2043.254926,2043.644513,2042.984908,2044.351278,2044.118627,2048.112431
0.9150,2049.310408,2047.921078,2046.771163,2047.500000,2048.329874,2043.514670,2043.653952,2042.945069,2044.404570,2044.198603,2048.001211
0.9163,2049.154269,2047.824581,2046.684373,2047.500000,2048.772100,2043.766661,2043.715300,2043.082292,2044.497833,2044.339360,2047.887103
0.9175,2049.008898,2047.722236,2046.596597,2047.500000,2049.037996,2043.968253,2043.804962,2043.325753,2044.604419,2044.512108,2047.775883
0.9187,2048.872949,2047.619890,2046.514738,2047.500000,2049.092575,2044.119448,2043.913501,2043.591347,2044.715446,2044.688054,2047.668996
0.9200,2048.753152,2047.517545,2046.441756,2047.500000,2048.990415,2044.259012,2044.031478,2043.812675,2044.822032,2044.841608,2047.570776
0.9213,2048.646816,2047.421048,2046.380608,2047.500000,2048.826679,2044.394699,2044.149455,2043.980884,2044.915294,2044.940778,2047.482667
0.9225,2048.556632,2047.333323,2046.334255,2047.500000,2048.676938,2044.503249,2044.262713,2044.131387,2044.977469,2044.972768,2047.407558
0.9237,2048.483947,2047.257295,2046.304667,2047.500000,2048.557984,2044.522633,2044.380690,2044.304023,2045.004116,2044.943977,2047.348337
0.9250,2048.428759,2047.198812,2046.293819,2047.500000,2048.464221,2044.421837,2044.503386,2044.525351,2045.012998,2044.867200,2047.306449
0.9263,2048.389725,2047.157874,2046.300722,2047.500000,2048.398447,2044.235751,2044.640239,2044.768812,2045.048526,2044.780826,2047.283338
0.9275,2048.368188,2047.140329,2046.326365,2047.500000,2048.392849,2044.061296,2044.777092,2044.994567,2045.159553,2044.716846,2047.277560
0.9287,2048.362804,2047.140329,2046.366801,2047.500000,2048.469819,2043.999267,2044.876193,2045.171629,2045.359402,2044.707249,2047.290560
0.9300,2048.372226,2047.163723,2046.422031,2047.500000,2048.604166,2044.072926,2044.904507,2045.299999,2045.608102,2044.764831,2047.319448
0.9313,2048.395109,2047.207585,2046.490082,2047.500000,2048.707726,2044.220244,2044.871474,2045.423943,2045.839038,2044.883195,2047.364225
0.9325,2048.431451,2047.266068,2046.567009,2047.500000,2048.689533,2044.317163,2044.819564,2045.583299,2046.007799,2045.030350,2047.420557
0.9337,2048.475870,2047.336247,2046.650840,2047.500000,2048.524398,2044.301656,2044.829002,2045.786921,2046.109943,2045.161511,2047.488445
0.9350,2048.527019,2047.415200,2046.739603,2047.500000,2048.290689,2044.189230,2044.928103,2046.017102,2046.181001,2045.238287,2047.560665
0.9363,2048.582207,2047.497076,2046.831324,2047.500000,2048.117158,2044.069050,2045.097989,2046.203018,2046.256499,2045.251083,2047.637219
0.9375,2048.638740,2047.576028,2046.924031,2047.500000,2048.093367,2044.014775,2045.249000,2046.295975,2046.345320,2045.215894,2047.712329
0.9387,2048.691235,2047.643283,2047.015752,2047.500000,2048.198326,2044.026405,2045.300910,2046.260563,2046.407495,2045.167909,2047.783105
0.9400,2048.739692,2047.698842,2047.107473,2047.500000,2048.324276,2044.041912,2045.234843,2046.101207,2046.403054,2045.139117,2047.848103
0.9413,2048.780073,2047.736856,2047.197222,2047.500000,2048.360662,2043.991514,2045.088551,2045.848893,2046.331997,2045.129520,2047.904436
0.9425,2048.811031,2047.754401,2047.284998,2047.500000,2048.271097,2043.894594,2044.937541,2045.547887,2046.198765,2045.113525,2047.950657
0.9437,2048.831222,2047.751477,2047.371788,2047.500000,2048.107361,2043.828689,2044.833721,2045.251307,2046.043327,2045.081535,2047.983878
0.9450,2048.840644,2047.728084,2047.457591,2047.500000,2047.950623,2043.882964,2044.791249,2045.007846,2045.874566,2045.059142,2048.008433
0.9463,2048.840644,2047.684222,2047.541422,2047.500000,2047.852661,2044.076803,2044.786530,2044.883903,2045.710247,2045.103928,2048.021433
0.9475,2048.829876,2047.628663,2047.624267,2047.500000,2047.809279,2044.344301,2044.810126,2044.923742,2045.590338,2045.254282,2048.027211
0.9487,2048.811031,2047.558483,2047.704153,2047.500000,2047.796683,2044.584661,2044.890350,2045.140643,2045.563691,2045.500608,2048.024322
0.9500,2048.785457,2047.485379,2047.781081,2047.500000,2047.813477,2044.731979,2045.060237,2045.494768,2045.679159,2045.756530,2048.017100
0.9513,2048.753152,2047.412275,2047.853077,2047.500000,2047.875053,2044.797884,2045.310348,2045.897585,2045.927859,2045.932476,2048.005544
0.9525,2048.716809,2047.339172,2047.920142,2047.500000,2047.988408,2044.840529,2045.574616,2046.247283,2046.238735,2045.980462,2047.992545
0.9537,2048.676429,2047.277764,2047.978330,2047.500000,2048.117158,2044.914188,2045.753941,2046.464185,2046.509640,2045.932476,2047.976656
0.9550,2048.632010,2047.225130,2048.025670,2047.500000,2048.201125,2045.030491,2045.786975,2046.517304,2046.673960,2045.884491,2047.960768
0.9563,2048.582207,2047.187116,2048.061175,2047.500000,2048.198326,2045.150671,2045.706750,2046.437625,2046.722812,2045.903685,2047.943435
0.9575,2048.527019,2047.160798,2048.082873,2047.500000,2048.117158,2045.239837,2045.612369,2046.278269,2046.705047,2046.002855,2047.923213
0.9587,2048.465102,2047.149102,2048.087804,2047.500000,2048.016397,2045.290235,2045.621807,2046.092354,2046.673960,2046.114821,2047.900102
0.9600,2048.395109,2047.146178,2048.074983,2047.500000,2047.960419,2045.340633,2045.768098,2045.937424,2046.660637,2046.175602,2047.872658
0.9613,2048.317039,2047.152026,2048.044409,2047.500000,2047.971615,2045.425923,2046.004052,2045.840040,2046.678401,2046.172403,2047.837993
0.9625,2048.230893,2047.163723,2047.996083,2047.500000,2048.040188,2045.549980,2046.240006,2045.813480,2046.736135,2046.162806,2047.797549
0.9637,2048.138017,2047.175419,2047.930004,2047.500000,2048.146546,2045.685667,2046.400455,2045.875452,2046.856044,2046.217190,2047.746995
0.9650,2048.038411,2047.184192,2047.848146,2047.500000,2048.282293,2045.805847,2046.504275,2046.017102,2047.060334,2046.367544,2047.690662
0.9663,2047.937459,2047.184192,2047.753466,2047.500000,2048.448827,2045.895013,2046.598656,2046.229577,2047.322357,2046.572282,2047.624219
0.9675,2047.837853,2047.175419,2047.647937,2047.500000,2048.622359,2045.964795,2046.726071,2046.481891,2047.593263,2046.754626,2047.553443
0.9688,2047.742285,2047.152026,2047.535505,2047.500000,2048.746910,2046.030700,2046.867644,2046.743058,2047.793111,2046.863393,2047.476889
0.9700,2047.657485,2047.116936,2047.421100,2047.500000,2048.763704,2046.104359,2046.971463,2046.973239,2047.895256,2046.917777,2047.398891
0.9712,2047.586146,2047.070150,2047.307682,2047.500000,2048.660144,2046.178018,2046.985621,2047.154728,2047.908579,2046.984957,2047.322337
0.9725,2047.536343,2047.011667,2047.202153,2047.500000,2048.489411,2046.236170,2046.924273,2047.274245,2047.877491,2047.128913,2047.250117
0.9738,2047.508076,2046.941487,2047.107473,2047.500000,2048.332673,2046.267184,2046.844048,2047.345070,2047.841963,2047.340049,2047.185118
0.9750,2047.505384,2046.865459,2047.027587,2047.500000,2048.247306,2046.274937,2046.815734,2047.376056,2047.801993,2047.541587,2047.133119
0.9762,2047.530959,2046.789431,2046.966440,2047.500000,2048.216519,2046.259430,2046.844048,2047.393763,2047.748700,2047.634359,2047.095564
0.9775,2047.584800,2046.716327,2046.926990,2047.500000,2048.173136,2046.216786,2046.872363,2047.407042,2047.686525,2047.573578,2047.075343
0.9788,2047.662869,2046.646148,2046.910224,2047.500000,2048.066777,2046.150880,2046.844048,2047.442455,2047.637673,2047.404029,2047.073898
0.9800,2047.763822,2046.590589,2046.919100,2047.500000,2047.911438,2046.084975,2046.754386,2047.522133,2047.624350,2047.228083,2047.091231
0.9812,2047.883618,2046.549651,2046.951646,2047.500000,2047.781290,2046.050084,2046.664723,2047.650503,2047.664320,2047.138510,2047.128786
0.9825,2048.014183,2046.529181,2047.007862,2047.500000,2047.747703,2046.073345,2046.664723,2047.831992,2047.748700,2047.183296,2047.183674
0.9838,2048.150132,2046.529181,2047.085776,2047.500000,2047.816276,2046.139250,2046.787419,2048.044467,2047.864168,2047.320854,2047.255894
0.9850,2048.284734,2046.552575,2047.181442,2047.500000,2047.912838,2046.205155,2046.995059,2048.234809,2048.006283,2047.477607,2047.339670
0.9862,2048.407223,2046.596437,2047.292888,2047.500000,2047.939427,2046.209032,2047.197979,2048.341047,2048.152838,2047.579976,2047.432113
0.9875,2048.512213,2046.660768,2047.414196,2047.500000,2047.847064,2046.123743,2047.320675,2048.318914,2048.268306,2047.589573,2047.528888
0.9888,2048.592975,2046.742645,2047.542409,2047.500000,2047.674931,2045.988056,2047.353709,2048.163984,2048.299394,2047.525592,2047.625664
0.9900,2048.642778,2046.842066,2047.671607,2047.500000,2047.511196,2045.871752,2047.339551,2047.907244,2048.201690,2047.416825,2047.718106
0.9912,2048.658930,2046.947335,2047.797847,2047.500000,2047.425829,2045.848492,2047.334832,2047.606237,2047.997400,2047.285665,2047.801882
0.9925,2048.638740,2047.058453,2047.917183,2047.500000,2047.420231,2045.929904,2047.363147,2047.327364,2047.762023,2047.148107,2047.871214
0.9938,2048.580861,2047.169571,2048.024684,2047.500000,2047.432826,2046.073345,2047.405618,2047.106036,2047.597704,2047.020146,2047.924657
0.9950,2048.487985,2047.268992,2048.117391,2047.500000,2047.403438,2046.236170,2047.452809,2046.968813,2047.571057,2046.933772,2047.957879
0.9962,2048.362804,2047.356717,2048.193332,2047.500000,2047.327868,2046.391241,2047.533034,2046.946680,2047.690966,2046.949767,2047.970879
0.9975,2048.209357,2047.426896,2048.250535,2047.500000,2047.250898,2046.557942,2047.684044,2047.052917,2047.913020,2047.112918,2047.962212
0.9988,2048.034373,2047.473683,2048.287026,2047.500000,2047.225708,2046.759535,2047.934155,2047.278672,2048.166161,2047.423223,2047.931879
1.0000,2047.845929,2047.497076,2048.304778,2047.500000,2047.245300,2046.980511,2048.226738,2047.553119,2048.405979,2047.823102,2047.881325
1.0012,2047.649409,2047.494152,2048.302806,2047.500000,2047.248099,2047.166597,2048.457973,2047.778873,2048.583622,2048.184592,2047.814882
1.0025,2047.454235,2047.467834,2048.285053,2047.500000,2047.166931,2047.244133,2048.519321,2047.840845,2048.641356,2048.389330,2047.735439
1.0037,2047.267137,2047.421048,2048.252507,2047.500000,2047.001796,2047.189858,2048.363591,2047.708048,2048.552535,2048.373335,2047.647330
1.0050,2047.096192,2047.359641,2048.208126,2047.500000,2046.835261,2047.054170,2048.061570,2047.446881,2048.326040,2048.171796,2047.554888
1.0063,2046.944090,2047.286537,2048.155855,2047.500000,2046.775085,2046.930113,2047.735954,2047.207847,2048.059576,2047.893480,2047.462445
1.0075,2046.818910,2047.207585,2048.099639,2047.500000,2046.877245,2046.895222,2047.490562,2047.137022,2047.890815,2047.666349,2047.375781
1.0088,2046.723342,2047.131557,2048.040464,2047.500000,2047.085763,2046.957251,2047.382023,2047.296378,2047.921902,2047.567180,2047.299227
1.0100,2046.657386,2047.064301,2047.983262,2047.500000,2047.277487,2047.058047,2047.382023,2047.637223,2048.143956,2047.605568,2047.235672
1.0112,2046.622390,2047.011667,2047.929018,2047.500000,2047.351658,2047.127829,2047.448090,2048.048894,2048.441508,2047.723932,2047.188007
1.0125,2046.618352,2046.976577,2047.879705,2047.500000,2047.302677,2047.120076,2047.547191,2048.411872,2048.663562,2047.858291,2047.157674
1.0137,2046.641234,2046.961956,2047.836311,2047.500000,2047.218710,2047.050293,2047.646291,2048.642053,2048.703531,2047.967058,2047.147563
1.0150,2046.688345,2046.970728,2047.798833,2047.500000,2047.203317,2046.961128,2047.721797,2048.730584,2048.565858,2048.024641,2047.153341
1.0163,2046.755646,2046.999970,2047.767273,2047.500000,2047.297080,2046.887469,2047.726516,2048.673039,2048.330481,2048.011844,2047.173563
1.0175,2046.837754,2047.043832,2047.740645,2047.500000,2047.456617,2046.833194,2047.617977,2048.495976,2048.081781,2047.915874,2047.208229
1.0188,2046.931976,2047.102315,2047.716975,2047.500000,2047.606358,2046.790549,2047.405618,2048.248089,2047.868609,2047.733529,2047.250117
1.0200,2047.030236,2047.163723,2047.697250,2047.500000,2047.707119,2046.740151,2047.174384,2048.004628,2047.704289,2047.506398,2047.297782
1.0212,2047.131188,2047.228054,2047.679497,2047.500000,2047.778491,2046.689753,2047.028092,2047.867405,2047.628791,2047.320854,2047.346892
1.0225,2047.229448,2047.283613,2047.662731,2047.500000,2047.862458,2046.658739,2047.046969,2047.911670,2047.686525,2047.263272,2047.391669
1.0237,2047.323670,2047.327475,2047.646951,2047.500000,2047.957620,2046.662615,2047.202698,2048.141851,2047.904138,2047.362442,2047.432113
1.0250,2047.409816,2047.353792,2047.633143,2047.500000,2048.008000,2046.697506,2047.382023,2048.460564,2048.228336,2047.570379,2047.465334
1.0263,2047.487886,2047.359641,2047.621309,2047.500000,2047.947824,2046.744028,2047.452809,2048.721731,2048.534771,2047.781514,2047.489889
1.0275,2047.556533,2047.345020,2047.612432,2047.500000,2047.770094,2046.771165,2047.339551,2048.801409,2048.672444,2047.906277,2047.504333
1.0288,2047.619797,2047.309930,2047.608487,2047.500000,2047.544782,2046.751781,2047.080002,2048.655332,2048.574740,2047.928670,2047.513000
1.0300,2047.676330,2047.257295,2047.610460,2047.500000,2047.382446,2046.689753,2046.773262,2048.341047,2048.303835,2047.893480,2047.514444
1.0312,2047.727479,2047.195888,2047.618350,2047.500000,2047.337664,2046.600587,2046.537308,2047.986922,2048.010724,2047.871087,2047.514444
1.0325,2047.778628,2047.128633,2047.634130,2047.500000,2047.382446,2046.515298,2046.419331,2047.721328,2047.837522,2047.871087,2047.513000
1.0337,2047.828431,2047.061377,2047.655827,2047.500000,2047.427229,2046.468776,2046.414612,2047.619517,2047.841963,2047.858291,2047.515889
1.0350,2047.880926,2047.005818,2047.683442,2047.500000,2047.404837,2046.472653,2046.499556,2047.681489,2047.970754,2047.791112,2047.523111
1.0362,2047.936113,2046.961956,2047.715988,2047.500000,2047.332066,2046.523051,2046.660004,2047.867405,2048.130633,2047.669548,2047.537555
1.0375,2047.993992,2046.938563,2047.749521,2047.500000,2047.292881,2046.592833,2046.891239,2048.084306,2048.237219,2047.551184,2047.560665
1.0388,2048.054564,2046.938563,2047.781081,2047.500000,2047.360055,2046.650985,2047.160226,2048.261368,2048.277188,2047.512796,2047.590998
1.0400,2048.117827,2046.961956,2047.806723,2047.500000,2047.539185,2046.685876,2047.386742,2048.332193,2048.254983,2047.586374,2047.628553
1.0413,2048.179744,2047.011667,2047.822503,2047.500000,2047.751901,2046.705260,2047.452809,2048.283501,2048.175043,2047.717534,2047.671885
1.0425,2048.240315,2047.078922,2047.824476,2047.500000,2047.904441,2046.736274,2047.306518,2048.128572,2048.024047,2047.816704,2047.715217
1.0437,2048.295503,2047.163723,2047.809682,2047.500000,2047.961819,2046.794426,2046.999778,2047.911670,2047.784229,2047.829500,2047.755661
1.0450,2048.343960,2047.257295,2047.775163,2047.500000,2047.967416,2046.883592,2046.683600,2047.681489,2047.473354,2047.778315,2047.791771
1.0462,2048.382994,2047.353792,2047.719933,2047.500000,2047.996805,2046.972758,2046.532589,2047.486720,2047.149155,2047.743126,2047.817771
1.0475,2048.412607,2047.447365,2047.642020,2047.500000,2048.084970,2047.038663,2046.617532,2047.367203,2046.896014,2047.787913,2047.833659
1.0488,2048.431451,2047.532166,2047.544381,2047.500000,2048.196926,2047.065801,2046.858205,2047.331791,2046.753899,2047.896679,2047.835104
1.0500,2048.440874,2047.602345,2047.429976,2047.500000,2048.258502,2047.058047,2047.094159,2047.367203,2046.722812,2047.976655,2047.824993
1.0513,2048.443566,2047.660828,2047.302750,2047.500000,2048.227714,2047.042540,2047.174384,2047.433602,2046.745017,2047.925471,2047.801882
1.0525,2048.443566,2047.701766,2047.167634,2047.500000,2048.124155,2047.023156,2047.065845,2047.460161,2046.762781,2047.727131,2047.770105
1.0537,2048.442220,2047.728084,2047.030546,2047.500000,2048.023394,2046.999895,2046.848767,2047.411469,2046.731694,2047.464811,2047.733995
1.0550,2048.446258,2047.742705,2046.899375,2047.500000,2047.987009,2046.949497,2046.622252,2047.269819,2046.656196,2047.266471,2047.696440
1.0562,2048.459718,2047.748553,2046.780039,2047.500000,2048.017797,2046.852578,2046.433488,2047.079477,2046.549610,2047.205689,2047.663219
1.0575,2048.486639,2047.757325,2046.677469,2047.500000,2048.061180,2046.720767,2046.235287,2046.897988,2046.443024,2047.253675,2047.640108
1.0588,2048.529712,2047.769022,2046.596597,2047.500000,2048.055582,2046.573450,2045.989895,2046.774044,2046.345320,2047.295262,2047.631442
1.0600,2048.591629,2047.786567,2046.542353,2047.500000,2047.978612,2046.457146,2045.716189,2046.703219,2046.274263,2047.231282,2047.640108
1.0613,2048.673737,2047.821657,2046.514738,2047.500000,2047.862458,2046.391241,2045.508549,2046.663380,2046.229852,2047.042539,2047.670441
1.0625,2048.771997,2047.868443,2046.514738,2047.500000,2047.756099,2046.387364,2045.475516,2046.601408,2046.203206,2046.799413,2047.718106
1.0637,2048.885063,2047.932775,2046.540381,2047.500000,2047.687526,2046.422255,2045.617088,2046.508450,2046.185442,2046.601073,2047.785994
1.0650,2049.007552,2048.008802,2046.587721,2047.500000,2047.653940,2046.468776,2045.824727,2046.402213,2046.172118,2046.489107,2047.868325
1.0662,2049.134078,2048.093603,2046.651827,2047.500000,2047.631548,2046.511421,2045.952142,2046.322535,2046.167677,2046.437923,2047.960768
1.0675,2049.257913,2048.184252,2046.726782,2047.500000,2047.620353,2046.538559,2045.923828,2046.313682,2046.189883,2046.383539,2048.056099
1.0688,2049.372325,2048.266128,2046.806668,2047.500000,2047.645543,2046.538559,2045.820008,2046.375654,2046.256499,2046.297166,2048.148541
1.0700,2049.469239,2048.339232,2046.884581,2047.500000,2047.740705,2046.515298,2045.768098,2046.490744,2046.349761,2046.197996,2048.230873
1.0713,2049.543271,2048.394791,2046.954605,2047.500000,2047.917036,2046.457146,2045.867199,2046.601408,2046.438583,2046.137214,2048.297316
1.0725,2049.589036,2048.424032,2047.011807,2047.500000,2048.150744,2046.383487,2046.055962,2046.654527,2046.469670,2046.143612,2048.342093
1.0737,2049.606534,2048.426956,2047.051257,2047.500000,2048.381654,2046.305952,2046.197535,2046.605835,2046.411937,2046.182001,2048.360870
1.0750,2049.593074,2048.394791,2047.070982,2047.500000,2048.541191,2046.240046,2046.155063,2046.464185,2046.287586,2046.188399,2048.353648
1.0762,2049.551347,2048.336308,2047.069010,2047.500000,2048.580376,2046.189648,2045.942704,2046.273843,2046.163236,2046.127617,2048.318982
