Time(s),I-Raw(V),II-Raw(V),III-Raw(V),V1-Raw(V),V2-Raw(V),V3-Raw(V),V4-Raw(V),V5-Raw(V),V6-Raw(V),LA-Raw(V),RA-Raw(V),LL-Raw(V)
0.0000,1.856371,1.551745,1.760314,1.743469,1.583524,1.561792,1.639182,1.557198,1.658374,0.611484,0.562682,0.514421
0.0013,1.855365,1.551362,1.760078,1.744809,1.583955,1.563420,1.641239,1.559449,1.659044,0.637657,0.588187,0.544621
0.0025,1.849860,1.551025,1.758161,1.747490,1.585151,1.564855,1.644403,1.564141,1.660959,0.875099,0.827254,0.787432
0.0037,1.840242,1.550068,1.756585,1.750553,1.586680,1.565096,1.647561,1.570934,1.662921,1.312444,1.267981,1.226970
0.0050,1.828947,1.551313,1.755529,1.753329,1.589409,1.565721,1.651579,1.578691,1.665317,1.824412,1.785934,1.742643
0.0063,1.819328,1.552030,1.756296,1.755865,1.590605,1.565386,1.654066,1.583571,1.666609,2.258348,2.224311,2.173883
0.0075,1.814541,1.552224,1.758066,1.755865,1.590843,1.563469,1.653588,1.584621,1.665123,2.419933,2.389275,2.332349
0.0088,1.812435,1.551601,1.759647,1.755436,1.590079,1.561940,1.653158,1.583857,1.664500,2.419673,2.393294,2.334098
0.0100,1.812581,1.551791,1.761607,1.755195,1.589553,1.561031,1.652057,1.582661,1.664597,2.333100,2.310657,2.249930
0.0112,1.814636,1.552846,1.763235,1.754334,1.589503,1.561031,1.651579,1.580269,1.664024,2.205514,2.183534,2.123383
0.0125,1.817412,1.554137,1.764527,1.754191,1.590129,1.562132,1.651386,1.578448,1.664357,2.065264,2.041912,1.984210
0.0138,1.820476,1.554664,1.766109,1.754526,1.590749,1.563228,1.651628,1.577538,1.664454,1.928650,1.903814,1.848416
0.0150,1.824163,1.555716,1.766392,1.754191,1.590798,1.563902,1.651724,1.576488,1.664790,1.814833,1.786676,1.733427
0.0163,1.831246,1.557056,1.766250,1.752228,1.590317,1.563420,1.649715,1.573282,1.663207,1.624249,1.587737,1.532492
0.0175,1.842442,1.559451,1.766345,1.748638,1.588357,1.564093,1.647368,1.567109,1.662252,1.237886,1.194898,1.142536
0.0187,1.853737,1.559690,1.766156,1.746102,1.587206,1.564855,1.645456,1.561749,1.660627,0.825675,0.775997,0.728455
0.0200,1.859147,1.559162,1.765631,1.745049,1.586491,1.566915,1.645359,1.560931,1.661153,0.604729,0.553500,0.513473
0.0213,1.856947,1.558923,1.765725,1.745049,1.586397,1.568159,1.646600,1.563376,1.661869,0.632591,0.581540,0.546103
0.0225,1.851489,1.558111,1.764144,1.747347,1.588595,1.569693,1.648663,1.568208,1.663641,0.873345,0.824132,0.792026
0.0238,1.842158,1.557200,1.761990,1.750936,1.589985,1.570076,1.651864,1.574478,1.665746,1.312249,1.265353,1.231712
0.0250,1.832583,1.558013,1.759600,1.754142,1.593046,1.570027,1.655119,1.582041,1.667565,1.825678,1.784481,1.747919
0.0262,1.822104,1.557249,1.758591,1.756249,1.594386,1.568592,1.656413,1.586922,1.668807,2.259744,2.222116,2.177647
0.0275,1.818035,1.556673,1.759358,1.756152,1.594148,1.566340,1.655839,1.587353,1.667805,2.418472,2.384823,2.333534
0.0288,1.816792,1.556673,1.761228,1.756535,1.593766,1.565096,1.654786,1.586825,1.667228,2.416718,2.388131,2.332971
0.0300,1.816552,1.556961,1.763666,1.756678,1.593955,1.563902,1.654211,1.585914,1.666799,2.329691,2.304351,2.248389
0.0312,1.818512,1.557295,1.765342,1.756249,1.594198,1.564187,1.654405,1.584767,1.666845,2.200351,2.175775,2.120360
0.0325,1.821387,1.558445,1.765772,1.755101,1.593766,1.565047,1.654018,1.583237,1.667468,2.061205,2.034801,1.980891
0.0338,1.825358,1.558635,1.765820,1.754574,1.594674,1.566438,1.654066,1.581659,1.668045,1.927351,1.897569,1.846312
0.0350,1.829665,1.560791,1.766970,1.754048,1.595438,1.568301,1.655028,1.580985,1.669047,1.813339,1.780215,1.731411
0.0362,1.835024,1.563182,1.768310,1.751320,1.594818,1.568449,1.653636,1.578163,1.668234,1.618988,1.578586,1.528520
0.0375,1.844982,1.565096,1.769602,1.748160,1.592952,1.569402,1.651531,1.572275,1.666988,1.229443,1.184510,1.137408
0.0387,1.854458,1.565528,1.770847,1.745049,1.590749,1.570410,1.649855,1.567012,1.666176,0.814861,0.764125,0.722617
0.0400,1.859289,1.565767,1.771230,1.743183,1.590317,1.572131,1.650333,1.566199,1.666416,0.597033,0.544813,0.511843
0.0413,1.859195,1.566534,1.771183,1.741890,1.589985,1.573331,1.651579,1.568063,1.667468,0.629863,0.576903,0.548859
0.0425,1.854935,1.566629,1.768693,1.742416,1.590416,1.574525,1.654211,1.572803,1.668857,0.876787,0.823699,0.799731
0.0437,1.846800,1.567107,1.766298,1.743948,1.591851,1.574908,1.657225,1.580027,1.671059,1.316178,1.264735,1.239121
0.0450,1.835505,1.566341,1.764191,1.746629,1.593811,1.574624,1.659905,1.586922,1.673404,1.827562,1.782101,1.753846
0.0462,1.825646,1.564811,1.762568,1.747539,1.594148,1.572613,1.660243,1.591037,1.673788,2.258283,2.217603,2.180818
0.0475,1.821004,1.565240,1.764191,1.746724,1.592615,1.569693,1.658852,1.591231,1.672638,2.413308,2.376847,2.332527
0.0488,1.818082,1.564427,1.766061,1.745959,1.590367,1.566630,1.657182,1.590461,1.671152,2.411393,2.379969,2.332438
0.0500,1.818035,1.563661,1.768215,1.744857,1.587925,1.564378,1.655597,1.588166,1.670339,2.323423,2.295447,2.246433
0.0512,1.820523,1.563900,1.769124,1.743901,1.586779,1.563420,1.654593,1.585774,1.670099,2.195740,2.168077,2.119708
0.0525,1.824065,1.563900,1.769838,1.743469,1.585821,1.562943,1.653207,1.583760,1.669624,2.055749,2.026516,1.979616
0.0537,1.827034,1.564811,1.770463,1.743278,1.585821,1.563228,1.652487,1.581562,1.669527,1.921928,1.890304,1.845808
0.0550,1.830575,1.565623,1.770463,1.743040,1.585295,1.563803,1.652106,1.579504,1.669384,1.808078,1.773197,1.730700
0.0563,1.837130,1.566580,1.770558,1.739977,1.583092,1.563135,1.650000,1.576008,1.667948,1.612396,1.569497,1.524312
0.0575,1.847853,1.568352,1.770033,1.736434,1.581658,1.562702,1.647223,1.570120,1.666656,1.222916,1.174184,1.131718
0.0587,1.859289,1.569309,1.770511,1.732893,1.579504,1.562894,1.644494,1.564475,1.664837,0.811030,0.756273,0.718972
0.0600,1.865319,1.568876,1.769985,1.731743,1.578353,1.563951,1.644446,1.563085,1.664980,0.597553,0.541134,0.510954
0.0612,1.863596,1.568735,1.768788,1.731505,1.578065,1.565239,1.645595,1.565671,1.665936,0.634215,0.577429,0.551200
0.0625,1.857471,1.568018,1.767495,1.733323,1.580174,1.566581,1.648705,1.571079,1.668331,0.883055,0.827347,0.804325
0.0638,1.847517,1.566675,1.764769,1.736434,1.581946,1.566773,1.651864,1.577635,1.670483,1.323745,1.270856,1.246115
0.0650,1.837848,1.565528,1.761512,1.739497,1.584625,1.567057,1.654979,1.584767,1.672061,1.838603,1.791746,1.763626
0.0663,1.828564,1.565623,1.759695,1.741028,1.585533,1.565578,1.655645,1.589216,1.672685,2.267473,2.223260,2.186805
0.0675,1.824783,1.563566,1.758691,1.740072,1.583906,1.561984,1.654163,1.589556,1.671632,2.421069,2.380495,2.335253
0.0688,1.822104,1.562226,1.760462,1.739497,1.582898,1.558922,1.652680,1.588311,1.670626,2.417757,2.382257,2.333001
0.0700,1.822822,1.562894,1.762615,1.739689,1.582516,1.557678,1.651483,1.586394,1.669813,2.329658,2.297302,2.247144
0.0712,1.824783,1.562799,1.764769,1.740550,1.583474,1.557678,1.650859,1.584578,1.669333,2.200968,2.169282,2.119085
0.0725,1.826794,1.563038,1.764864,1.741412,1.584288,1.558445,1.650811,1.582133,1.669956,2.060685,2.027938,1.979320
0.0737,1.830193,1.564666,1.765772,1.742178,1.585389,1.559354,1.650956,1.580603,1.669813,1.926864,1.891726,1.845837
0.0750,1.832776,1.564811,1.766876,1.741746,1.584720,1.559831,1.649807,1.578831,1.669384,1.813014,1.775856,1.731174
0.0762,1.838806,1.564332,1.765914,1.740358,1.583186,1.559212,1.646793,1.574284,1.667468,1.613208,1.569466,1.521496
0.0775,1.848377,1.563949,1.766109,1.737966,1.581370,1.559404,1.644736,1.568785,1.665603,1.223143,1.174524,1.128103
0.0788,1.857566,1.565050,1.767684,1.736291,1.580844,1.560215,1.642963,1.564093,1.664310,0.810965,0.757355,0.714586
0.0800,1.862018,1.563231,1.766587,1.735908,1.580412,1.561365,1.642534,1.562417,1.663784,0.599858,0.545648,0.509264
0.0813,1.860248,1.561603,1.764816,1.736769,1.580318,1.562609,1.643060,1.564238,1.664167,0.639670,0.585312,0.552623
0.0825,1.853835,1.559690,1.762710,1.739880,1.582040,1.563326,1.644258,1.568639,1.665077,0.891822,0.839497,0.808948
0.0838,1.843736,1.557390,1.759742,1.743566,1.583712,1.562275,1.646552,1.574430,1.666369,1.335597,1.286901,1.253139
0.0850,1.832153,1.555572,1.757110,1.747969,1.585439,1.561508,1.649329,1.580317,1.667994,1.848052,1.806678,1.769109
0.0862,1.822104,1.554664,1.756007,1.750505,1.585915,1.559930,1.650097,1.584147,1.667708,2.271921,2.235039,2.187931
0.0875,1.816552,1.553514,1.757063,1.751509,1.585965,1.558111,1.649280,1.584530,1.665700,2.420030,2.387914,2.332764
0.0887,1.813535,1.552558,1.759264,1.751941,1.585628,1.556626,1.648136,1.583334,1.664310,2.413601,2.387482,2.328259
0.0900,1.813011,1.551745,1.761176,1.751463,1.584432,1.555191,1.646412,1.581034,1.663207,2.324950,2.302990,2.241543
0.0912,1.814446,1.549927,1.761465,1.750985,1.584144,1.554374,1.645740,1.578448,1.662205,2.198240,2.177506,2.115114
0.0925,1.817795,1.550261,1.762232,1.750170,1.584243,1.554566,1.645021,1.576008,1.661869,2.059191,2.036625,1.975112
0.0938,1.821194,1.549927,1.761707,1.750218,1.584194,1.554856,1.644543,1.574284,1.661919,1.926247,1.900691,1.841214
0.0950,1.825453,1.550451,1.760462,1.749451,1.583380,1.555092,1.644016,1.572275,1.661102,1.814443,1.785285,1.726284
0.0963,1.831100,1.550546,1.759453,1.748160,1.581032,1.553947,1.641433,1.567923,1.659140,1.611032,1.574969,1.511983
0.0975,1.840672,1.550356,1.759122,1.745336,1.578591,1.552895,1.637415,1.561222,1.656606,1.221098,1.180151,1.118797
0.0988,1.850676,1.549590,1.759406,1.742897,1.576105,1.552605,1.634444,1.554854,1.654307,0.812588,0.766228,0.709281
0.1000,1.855701,1.548967,1.757877,1.742562,1.575723,1.554139,1.634444,1.553659,1.654118,0.605574,0.557983,0.507338
0.1013,1.853737,1.546671,1.756007,1.742943,1.575817,1.554900,1.636072,1.555382,1.654164,0.644768,0.596936,0.549274
0.1025,1.846654,1.545091,1.754956,1.744857,1.576968,1.555475,1.637651,1.559595,1.655600,0.898609,0.853192,0.808148
0.1037,1.836653,1.542985,1.752130,1.747728,1.579216,1.555958,1.640095,1.565719,1.656938,1.341864,1.300040,1.252250
0.1050,1.825934,1.542267,1.749693,1.751271,1.581990,1.556292,1.642867,1.572324,1.659237,1.856560,1.821054,1.770324
0.1062,1.817700,1.542841,1.748590,1.753424,1.583141,1.554665,1.643635,1.575868,1.658665,2.279260,2.246416,2.186893
0.1075,1.813776,1.541262,1.748400,1.753232,1.581990,1.551695,1.642437,1.576536,1.657755,2.426850,2.397653,2.330808
0.1087,1.812198,1.542077,1.750985,1.753521,1.581608,1.550019,1.641481,1.575868,1.657322,2.419738,2.395210,2.325444
0.1100,1.811287,1.540977,1.753522,1.752946,1.580988,1.549208,1.640810,1.574047,1.656652,2.329463,2.309328,2.237809
0.1113,1.812388,1.540928,1.755098,1.752468,1.580650,1.548874,1.639757,1.571559,1.655983,2.199637,2.180752,2.109216
0.1125,1.813776,1.541023,1.756154,1.751558,1.580794,1.548775,1.639230,1.569641,1.655646,2.059581,2.039964,1.969362
0.1138,1.817365,1.540498,1.755818,1.751749,1.580268,1.548682,1.638752,1.567680,1.656126,1.926442,1.904988,1.835613
0.1150,1.821576,1.541455,1.755245,1.752276,1.580889,1.549591,1.638371,1.566533,1.656080,1.814735,1.788840,1.721750
0.1163,1.828517,1.542412,1.754715,1.750696,1.579936,1.549591,1.635787,1.562514,1.654930,1.608759,1.575402,1.505463
0.1175,1.839046,1.542412,1.753759,1.748735,1.578164,1.549876,1.632817,1.556815,1.652535,1.217493,1.179007,1.110854
0.1187,1.848665,1.543080,1.754573,1.745959,1.576437,1.550260,1.630663,1.551601,1.651196,0.808594,0.764836,0.701190
0.1200,1.852924,1.541645,1.754095,1.745433,1.576487,1.551936,1.630808,1.549926,1.651246,0.603106,0.558570,0.501737
0.1212,1.851394,1.541645,1.753759,1.746005,1.576581,1.552703,1.631861,1.551838,1.650956,0.644866,0.599564,0.546399
0.1225,1.845601,1.540544,1.751894,1.748400,1.577782,1.553514,1.634111,1.556578,1.653065,0.903188,0.859592,0.810311
0.1237,1.835793,1.540210,1.750076,1.751366,1.579837,1.554089,1.636695,1.562945,1.655216,1.349138,1.307707,1.257080
0.1250,1.825070,1.539109,1.748112,1.754669,1.581558,1.554182,1.640186,1.569835,1.657229,1.863932,1.829463,1.775214
0.1263,1.816169,1.539158,1.747392,1.756632,1.582566,1.552320,1.642104,1.574624,1.658374,2.282215,2.251486,2.188701
0.1275,1.811382,1.539732,1.749498,1.756824,1.582328,1.550692,1.642152,1.575626,1.657848,2.425291,2.398395,2.329741
0.1288,1.810952,1.539299,1.750123,1.756057,1.582134,1.549542,1.641384,1.575146,1.657178,2.417660,2.394561,2.323399
0.1300,1.810427,1.540066,1.752561,1.755436,1.581558,1.548632,1.640761,1.574047,1.656320,2.327742,2.307844,2.235527
0.1313,1.811575,1.539443,1.754142,1.755387,1.581608,1.547865,1.639902,1.572178,1.655840,2.197786,2.179361,2.107260
0.1325,1.814541,1.539348,1.755198,1.754861,1.581658,1.547964,1.639230,1.570460,1.656509,2.057243,2.038047,1.966873
0.1338,1.818035,1.540593,1.755387,1.755004,1.581464,1.548923,1.638946,1.568445,1.656795,1.924721,1.902701,1.833835
0.1350,1.821004,1.541072,1.755771,1.754620,1.581464,1.549591,1.638704,1.567061,1.656652,1.812332,1.787016,1.719794
0.1363,1.826841,1.541455,1.755434,1.752325,1.579405,1.548583,1.636072,1.562751,1.654021,1.602297,1.569992,1.499091
0.1375,1.837228,1.542172,1.755434,1.748973,1.577876,1.548874,1.633343,1.556002,1.651962,1.210609,1.173659,1.104927
0.1388,1.847660,1.542746,1.754862,1.745911,1.575911,1.549400,1.631050,1.550405,1.650000,0.803139,0.759859,0.696004
0.1400,1.853117,1.542795,1.753806,1.745959,1.576055,1.551410,1.631141,1.549349,1.649714,0.601287,0.556345,0.499514
0.1412,1.851394,1.541455,1.752277,1.747107,1.577013,1.552128,1.632339,1.551649,1.650573,0.646782,0.601728,0.548651
0.1425,1.844789,1.539493,1.751752,1.749643,1.578452,1.553613,1.635116,1.556341,1.652156,0.909617,0.866455,0.816031
0.1437,1.835458,1.540259,1.749882,1.752133,1.580462,1.554615,1.637603,1.563231,1.654450,1.353750,1.313395,1.262237
0.1450,1.824593,1.539683,1.747539,1.755101,1.582898,1.554182,1.640858,1.570460,1.657035,1.868186,1.833914,1.779689
0.1462,1.815976,1.539971,1.747108,1.756967,1.583667,1.552988,1.641766,1.575049,1.657178,2.284618,2.253310,2.191428
0.1475,1.812245,1.540977,1.749068,1.757110,1.583042,1.551361,1.641433,1.575674,1.656509,2.425746,2.398178,2.329119
0.1487,1.809757,1.540498,1.750507,1.757013,1.582472,1.549783,1.640186,1.574715,1.655743,2.417952,2.394252,2.323191
0.1500,1.810810,1.540305,1.751269,1.756152,1.581276,1.548583,1.639042,1.573282,1.654690,2.326151,2.305958,2.233126
0.1512,1.812581,1.539683,1.753711,1.756009,1.581514,1.547915,1.637651,1.570217,1.654261,2.196617,2.177475,2.105275
0.1525,1.814304,1.539158,1.754956,1.755579,1.581420,1.548441,1.637173,1.568014,1.654690,2.055554,2.035605,1.964857
0.1537,1.817845,1.540639,1.755434,1.755387,1.581846,1.549109,1.637415,1.566678,1.655503,1.923195,1.901310,1.831908
0.1550,1.821241,1.541455,1.754956,1.755052,1.582615,1.550402,1.637845,1.566150,1.655886,1.810806,1.784976,1.717719
0.1562,1.827894,1.542412,1.754667,1.752754,1.580889,1.550068,1.635739,1.562514,1.654164,1.599797,1.566096,1.495742
0.1575,1.838281,1.543273,1.754767,1.749548,1.578735,1.549734,1.632484,1.556767,1.652105,1.209310,1.169887,1.101637
0.1588,1.848188,1.542841,1.754526,1.747347,1.577876,1.550643,1.630427,1.551364,1.651053,0.801548,0.756304,0.693188
0.1600,1.852542,1.541979,1.754284,1.747490,1.577445,1.552177,1.629804,1.550260,1.650956,0.598852,0.552758,0.496491
0.1613,1.851536,1.540878,1.752992,1.748590,1.577732,1.552654,1.630282,1.552080,1.651099,0.647301,0.600955,0.548592
0.1625,1.844931,1.539299,1.751221,1.750936,1.578308,1.553755,1.632484,1.556627,1.652631,0.911241,0.867197,0.817009
0.1638,1.834929,1.538153,1.748353,1.753424,1.580219,1.554758,1.635401,1.563182,1.654880,1.358880,1.317600,1.266060
0.1650,1.825216,1.539637,1.745911,1.756535,1.582804,1.554807,1.638994,1.570697,1.657035,1.873154,1.838088,1.782771
0.1663,1.816694,1.539109,1.745769,1.757302,1.583618,1.552939,1.639950,1.574909,1.657755,2.286047,2.254268,2.191339
0.1675,1.812100,1.540977,1.747823,1.756918,1.583524,1.551076,1.640622,1.575340,1.656795,2.423797,2.395798,2.326837
0.1688,1.809087,1.541694,1.752325,1.757205,1.582804,1.549832,1.641051,1.574861,1.655789,2.411815,2.389862,2.319457
0.1700,1.807841,1.542651,1.757110,1.757828,1.582422,1.550019,1.641003,1.573999,1.655073,2.317643,2.299992,2.230074
0.1713,1.808558,1.544423,1.762710,1.758307,1.583042,1.551076,1.641911,1.572178,1.655170,2.184537,2.169406,2.102074
0.1725,1.809181,1.548011,1.768646,1.759120,1.583524,1.553180,1.643490,1.571079,1.655789,2.039383,2.025403,1.961420
0.1737,1.809899,1.551791,1.773957,1.760986,1.584526,1.555766,1.645214,1.569307,1.655789,1.901730,1.887181,1.828471
0.1750,1.810712,1.553754,1.778742,1.763427,1.586779,1.559880,1.646842,1.567874,1.656223,1.784016,1.768993,1.713896
0.1762,1.814588,1.555811,1.780896,1.764145,1.589647,1.562225,1.646122,1.564141,1.653398,1.566155,1.545414,1.488007
0.1775,1.822724,1.554088,1.780849,1.764432,1.592997,1.563995,1.643157,1.556578,1.648754,1.173590,1.149205,1.091768
0.1787,1.832488,1.552079,1.780082,1.764912,1.595681,1.565529,1.641003,1.549689,1.645120,0.768393,0.739053,0.685186
0.1800,1.837658,1.551218,1.778553,1.766681,1.598168,1.568159,1.641481,1.548633,1.644737,0.572971,0.542587,0.495009
0.1812,1.837035,1.549927,1.777261,1.768021,1.600609,1.570553,1.644639,1.552797,1.646409,0.624570,0.592577,0.549185
0.1825,1.833254,1.551408,1.774771,1.770319,1.603671,1.574766,1.651101,1.561890,1.651196,0.893381,0.861168,0.822018
0.1837,1.824688,1.550690,1.771325,1.773287,1.607120,1.578355,1.657993,1.573088,1.656555,1.343650,1.313179,1.272758
0.1850,1.814541,1.549734,1.767637,1.776779,1.612430,1.581132,1.664599,1.584718,1.662062,1.859678,1.835182,1.790980
0.1862,1.806598,1.546241,1.762852,1.778742,1.618603,1.582518,1.668472,1.593240,1.665700,2.273285,2.251609,2.196021
0.1875,1.803246,1.543657,1.759358,1.779699,1.626692,1.584956,1.671679,1.598218,1.667994,2.415744,2.396076,2.330808
0.1888,1.805064,1.539299,1.753853,1.779509,1.636840,1.589312,1.675509,1.603383,1.671443,2.412691,2.394036,2.322480
0.1900,1.810952,1.537864,1.748400,1.777786,1.648854,1.596780,1.680821,1.609750,1.676945,2.329658,2.308895,2.234075
0.1913,1.821052,1.537147,1.741078,1.775440,1.662872,1.606976,1.689147,1.617933,1.685130,2.210385,2.181617,2.107201
0.1925,1.831723,1.538297,1.734138,1.772952,1.674217,1.618749,1.697284,1.628318,1.694893,2.080786,2.042252,1.969184
0.1938,1.844883,1.538103,1.723417,1.768356,1.679387,1.627028,1.703553,1.637271,1.703987,1.961318,1.911419,1.838517
0.1950,1.858859,1.536475,1.710305,1.762566,1.679194,1.632484,1.707860,1.645357,1.713128,1.863704,1.799815,1.726877
0.1963,1.876472,1.535997,1.698197,1.752516,1.675080,1.637125,1.711545,1.651244,1.721169,1.660586,1.578400,1.501877
0.1975,1.898489,1.539348,1.688673,1.741460,1.669001,1.645360,1.718678,1.660100,1.732221,1.280491,1.181295,1.109195
0.1988,1.921508,1.541979,1.679433,1.729351,1.660193,1.655073,1.727966,1.671008,1.744569,0.886594,0.769814,0.705873
0.2000,1.937492,1.542028,1.667136,1.719350,1.650908,1.664212,1.737151,1.683979,1.756585,0.709032,0.578696,0.522245
0.2013,1.947544,1.540115,1.654308,1.710781,1.639807,1.669576,1.745863,1.698098,1.767637,0.776511,0.633880,0.579681
0.2025,1.951326,1.537337,1.639951,1.703937,1.628126,1.672397,1.752851,1.712120,1.777211,1.059318,0.908283,0.854707
0.2037,1.950510,1.530925,1.623488,1.700108,1.617263,1.670534,1.753184,1.720738,1.781804,1.522414,1.365951,1.304439
0.2050,1.945726,1.518244,1.603337,1.698530,1.606544,1.660388,1.743376,1.719112,1.778407,2.055359,1.898682,1.822010
0.2062,1.941321,1.504218,1.584000,1.697669,1.596778,1.646505,1.728105,1.708198,1.768980,2.476208,2.317644,2.219760
0.2075,1.940509,1.490770,1.567826,1.696424,1.586347,1.630424,1.708054,1.688817,1.753760,2.619934,2.463842,2.345004
0.2087,1.939168,1.475837,1.555334,1.694318,1.573331,1.612767,1.687041,1.666273,1.737202,2.616134,2.463935,2.327607
0.2100,1.938403,1.466074,1.549162,1.690299,1.558493,1.596495,1.670148,1.645933,1.723464,2.527970,2.379475,2.233512
0.2112,1.936344,1.461386,1.548248,1.686326,1.541264,1.581176,1.654834,1.628318,1.710972,2.395806,2.252166,2.100681
0.2125,1.932227,1.457556,1.552461,1.683072,1.520729,1.564713,1.640670,1.611183,1.699247,2.249255,2.110760,1.957656
0.2137,1.928114,1.458467,1.560887,1.679912,1.499624,1.547865,1.628369,1.594770,1.688671,2.106050,1.972198,1.821951
0.2150,1.922033,1.460620,1.572517,1.678046,1.477512,1.527145,1.613099,1.576725,1.676992,1.978658,1.852062,1.704650
0.2162,1.916914,1.461288,1.582903,1.675510,1.451479,1.499291,1.590652,1.551746,1.659763,1.742808,1.619950,1.468477
0.2175,1.915668,1.458752,1.592521,1.675318,1.427118,1.470813,1.566771,1.523509,1.641815,1.335045,1.219166,1.067466
0.2188,1.914280,1.452865,1.599749,1.676850,1.407924,1.444345,1.544039,1.498617,1.625160,0.920463,0.810344,0.659818
0.2200,1.906384,1.446644,1.604724,1.681541,1.393662,1.418984,1.524272,1.480049,1.611952,0.722671,0.622936,0.472782
0.2213,1.892984,1.439082,1.608028,1.688622,1.380789,1.393951,1.505510,1.464158,1.598215,0.769140,0.680747,0.526543
0.2225,1.876519,1.431282,1.610324,1.698674,1.373802,1.375379,1.492683,1.453105,1.587639,1.033274,0.956882,0.799257
0.2238,1.857901,1.426207,1.612241,1.709825,1.376194,1.368536,1.488810,1.451333,1.582519,1.476172,1.411768,1.247271
0.2250,1.839764,1.426112,1.616596,1.718008,1.385047,1.371938,1.494171,1.456789,1.582279,1.984861,1.933183,1.765019
0.2263,1.826028,1.425968,1.621717,1.722699,1.397731,1.378973,1.499865,1.463156,1.581896,2.382069,2.338759,2.163332
0.2275,1.820188,1.427596,1.626692,1.724805,1.411134,1.386818,1.504124,1.466458,1.581323,2.508844,2.472035,2.291836
0.2288,1.818275,1.431282,1.632581,1.725905,1.423957,1.394477,1.508432,1.469906,1.582085,2.492412,2.460163,2.280604
0.2300,1.818370,1.437359,1.640954,1.727916,1.435684,1.403331,1.513744,1.473063,1.584767,2.393792,2.365223,2.191013
0.2313,1.819806,1.444203,1.650095,1.728778,1.446740,1.413478,1.520920,1.476176,1.587639,2.257861,2.230742,2.064317
0.2325,1.821194,1.453632,1.660769,1.729016,1.456456,1.424534,1.529348,1.480577,1.591562,2.110401,2.083214,1.925945
0.2338,1.823059,1.462772,1.671921,1.729831,1.465359,1.435875,1.538200,1.485888,1.596013,1.969663,1.941808,1.795248
0.2350,1.823875,1.471244,1.681828,1.731074,1.473874,1.446881,1.546338,1.490386,1.600320,1.848052,1.818890,1.681978
0.2362,1.828517,1.480384,1.691541,1.729877,1.480435,1.455450,1.551602,1.492735,1.602762,1.616780,1.581708,1.449747
0.2375,1.837611,1.487805,1.700923,1.727724,1.486513,1.463586,1.556194,1.492255,1.605683,1.217298,1.178203,1.055138
0.2387,1.846942,1.493116,1.706759,1.726623,1.493213,1.471722,1.561700,1.493166,1.608218,0.810640,0.767650,0.655965
0.2400,1.850581,1.499147,1.712028,1.727868,1.502115,1.481436,1.569069,1.497901,1.612576,0.622557,0.578263,0.478976
0.2412,1.850771,1.502639,1.714182,1.729639,1.512358,1.490196,1.577255,1.505701,1.617598,0.678735,0.632829,0.541568
0.2425,1.846800,1.506708,1.715280,1.732224,1.523796,1.499384,1.587160,1.516517,1.624250,0.952027,0.906304,0.822759
0.2437,1.838423,1.510921,1.717292,1.736483,1.534465,1.508046,1.597307,1.529106,1.630330,1.401550,1.357326,1.276789
0.2450,1.826458,1.514030,1.719446,1.742465,1.545616,1.516423,1.607738,1.543225,1.636839,1.916960,1.879731,1.800672
0.2462,1.817510,1.518768,1.723895,1.747156,1.553992,1.522932,1.615682,1.553276,1.641815,2.312870,2.279248,2.196170
0.2475,1.813488,1.522932,1.729400,1.749932,1.560835,1.527145,1.620613,1.557629,1.644640,2.437533,2.408195,2.322954
0.2487,1.810857,1.525805,1.734711,1.751366,1.565530,1.530925,1.623487,1.560074,1.645693,2.421199,2.396323,2.311277
0.2500,1.812245,1.528101,1.739213,1.753043,1.569306,1.533703,1.625925,1.561076,1.647609,2.325729,2.303763,2.220205
0.2512,1.814111,1.530925,1.742659,1.754955,1.572036,1.536048,1.627317,1.560888,1.648084,2.193824,2.173054,2.090694
0.2525,1.815929,1.531643,1.745002,1.755722,1.574045,1.537817,1.628369,1.559686,1.648084,2.051528,2.030009,1.950750
0.2537,1.818658,1.532983,1.746677,1.757348,1.576869,1.540546,1.630040,1.559352,1.648851,1.917837,1.894044,1.818039
0.2550,1.822104,1.535617,1.747970,1.757923,1.578258,1.543466,1.631093,1.558636,1.649760,1.803142,1.775918,1.702842
0.2562,1.829187,1.538775,1.749498,1.756200,1.578735,1.543800,1.629181,1.555522,1.648564,1.575994,1.540869,1.465987
0.2575,1.838088,1.538919,1.750265,1.753424,1.577921,1.544085,1.626930,1.549780,1.646985,1.180636,1.141445,1.067970
0.2587,1.846847,1.537674,1.751221,1.750553,1.577251,1.545329,1.624824,1.544323,1.644687,0.778037,0.735127,0.667286
0.2600,1.851299,1.537337,1.750985,1.750458,1.578164,1.547438,1.625211,1.543849,1.645070,0.595117,0.551584,0.490742
0.2612,1.848713,1.536619,1.750649,1.752228,1.579216,1.548874,1.626597,1.546958,1.645933,0.655777,0.612054,0.555319
0.2625,1.842347,1.536764,1.749598,1.754766,1.581132,1.550977,1.630282,1.552845,1.647655,0.932738,0.890228,0.836925
0.2637,1.833589,1.537769,1.748017,1.757302,1.584243,1.552654,1.634063,1.559832,1.650046,1.383982,1.344465,1.290243
0.2650,1.822534,1.537291,1.746389,1.760843,1.587161,1.553273,1.637463,1.566867,1.652585,1.901698,1.868478,1.811607
0.2662,1.813681,1.538248,1.747014,1.762422,1.588407,1.551887,1.638274,1.570982,1.652918,2.297315,2.267964,2.202838
0.2675,1.809946,1.538198,1.748159,1.762231,1.588407,1.549975,1.637893,1.571704,1.651962,2.421264,2.395025,2.324732
0.2687,1.809229,1.539109,1.749498,1.761466,1.588119,1.548583,1.637367,1.571462,1.651053,2.406522,2.384081,2.311515
0.2700,1.809611,1.539204,1.752325,1.761656,1.588069,1.547822,1.637125,1.570745,1.651053,2.310467,2.291212,2.218723
0.2712,1.812340,1.540259,1.754189,1.761801,1.588550,1.548539,1.636888,1.568494,1.651579,2.179861,2.160812,2.089153
0.2725,1.814253,1.541501,1.755482,1.761801,1.589220,1.549925,1.637125,1.567012,1.652202,2.039772,2.019467,1.948883
0.2737,1.818180,1.542890,1.755434,1.761418,1.589935,1.550928,1.637463,1.565768,1.652968,1.908582,1.885852,1.817505
0.2750,1.821482,1.542602,1.754767,1.760748,1.590605,1.551602,1.637318,1.564238,1.653111,1.795771,1.769735,1.703020
0.2762,1.827417,1.544181,1.755482,1.758690,1.588501,1.551027,1.634874,1.559832,1.651246,1.564824,1.531595,1.461898
0.2775,1.838329,1.543896,1.755676,1.755482,1.586779,1.550501,1.631909,1.553993,1.649044,1.168816,1.129110,1.062517
0.2787,1.848713,1.544947,1.755771,1.752611,1.585772,1.551361,1.630185,1.548347,1.647512,0.769367,0.724492,0.664056
0.2800,1.851871,1.544181,1.756107,1.752659,1.585866,1.553563,1.630905,1.548584,1.647844,0.590766,0.545555,0.491601
0.2812,1.849193,1.543224,1.755387,1.753424,1.586298,1.554473,1.631667,1.550884,1.649091,0.652659,0.607231,0.556594
0.2825,1.842970,1.543178,1.753906,1.756057,1.587881,1.555382,1.634493,1.555668,1.650909,0.933680,0.891032,0.843326
0.2838,1.833064,1.542267,1.753233,1.759217,1.588977,1.555333,1.637941,1.562514,1.652442,1.385151,1.346104,1.296645
0.2850,1.822440,1.542123,1.751321,1.762663,1.591419,1.555284,1.640955,1.569738,1.654880,1.903094,1.870734,1.817357
0.2863,1.813634,1.541789,1.750696,1.764529,1.592903,1.554566,1.642292,1.574527,1.655360,2.294912,2.265521,2.204705
0.2875,1.810427,1.542795,1.752083,1.764815,1.592997,1.553037,1.642152,1.575529,1.654547,2.417108,2.391439,2.324732
0.2888,1.809087,1.542412,1.754237,1.763810,1.593334,1.552320,1.641433,1.575146,1.653494,2.401164,2.379011,2.310122
0.2900,1.809374,1.542507,1.755723,1.763714,1.593478,1.551744,1.640906,1.573519,1.652825,2.306862,2.288151,2.218249
0.2913,1.810569,1.541979,1.757588,1.762997,1.593384,1.551936,1.640095,1.571704,1.652918,2.175444,2.158091,2.088115
0.2925,1.812963,1.543463,1.759022,1.762806,1.593910,1.552511,1.639805,1.569932,1.653444,2.035421,2.016376,1.947965
0.2938,1.817222,1.543752,1.758113,1.763044,1.594148,1.552703,1.639327,1.568305,1.654547,1.903938,1.882420,1.815845
0.2950,1.820286,1.543991,1.758260,1.762566,1.594481,1.553996,1.638752,1.567012,1.654593,1.790478,1.765685,1.700026
0.2963,1.826076,1.544230,1.757494,1.759646,1.592520,1.553180,1.636362,1.562083,1.652345,1.557582,1.525597,1.456445
0.2975,1.836893,1.544230,1.758355,1.756632,1.590798,1.553180,1.634160,1.556864,1.650240,1.161737,1.124349,1.057627
0.2988,1.846705,1.544947,1.758260,1.754812,1.590223,1.554615,1.632677,1.552032,1.649617,0.763652,0.721092,0.661122
0.3000,1.851059,1.545714,1.758213,1.754429,1.589647,1.555623,1.633155,1.551025,1.649520,0.588103,0.544195,0.490949
0.3013,1.849623,1.544996,1.756821,1.754669,1.589890,1.556768,1.634874,1.553562,1.649857,0.651945,0.606953,0.557275
0.3025,1.843400,1.543129,1.754767,1.757397,1.591612,1.557535,1.637463,1.558781,1.651865,0.934005,0.891527,0.844749
0.3038,1.833352,1.542222,1.752561,1.759646,1.593622,1.557727,1.639902,1.565289,1.654118,1.387619,1.348855,1.299342
0.3050,1.822199,1.542602,1.752277,1.763189,1.595394,1.558160,1.644016,1.572275,1.656223,1.906633,1.874321,1.821921
0.3063,1.813823,1.543607,1.751752,1.763762,1.596495,1.557393,1.645595,1.576391,1.656366,2.295042,2.265861,2.206039
0.3075,1.809324,1.542841,1.752661,1.763141,1.596252,1.555574,1.645021,1.576725,1.655743,2.414477,2.389615,2.323903
0.3088,1.807028,1.543129,1.755387,1.762997,1.596108,1.553372,1.643393,1.576294,1.654261,2.396552,2.375888,2.307603
0.3100,1.807841,1.543847,1.757830,1.762517,1.595964,1.552703,1.641481,1.574381,1.653638,2.300855,2.283081,2.214515
0.3113,1.810427,1.543752,1.759169,1.762087,1.596590,1.551695,1.639424,1.571607,1.652968,2.169177,2.152464,2.084144
0.3125,1.812818,1.543368,1.759264,1.761321,1.596540,1.552413,1.638704,1.569356,1.653398,2.030290,2.011955,1.944764
0.3137,1.817270,1.544757,1.759836,1.761034,1.596684,1.553656,1.639042,1.568063,1.653591,1.900009,1.878587,1.813978
0.3150,1.820811,1.545475,1.759453,1.760794,1.596495,1.554807,1.638994,1.565956,1.653684,1.787750,1.761789,1.699048
0.3162,1.829424,1.547627,1.758308,1.758498,1.594818,1.554281,1.637076,1.561604,1.651196,1.551737,1.517096,1.451614
0.3175,1.838901,1.548584,1.759553,1.756249,1.593240,1.554330,1.634063,1.555097,1.649234,1.154658,1.115446,1.052322
0.3187,1.846705,1.547103,1.760267,1.754526,1.591657,1.555141,1.632387,1.549926,1.648084,0.756930,0.714630,0.656528
0.3200,1.850866,1.546671,1.759936,1.754429,1.591324,1.556292,1.631958,1.549209,1.648135,0.584596,0.541382,0.490356
0.3212,1.850629,1.546336,1.758355,1.754477,1.591563,1.557152,1.632629,1.550884,1.649520,0.652464,0.607324,0.559795
0.3225,1.843546,1.545904,1.757683,1.756918,1.593955,1.557919,1.635546,1.557058,1.651293,0.941279,0.898545,0.853432
0.3237,1.833687,1.544518,1.755434,1.759933,1.595870,1.558302,1.638994,1.564330,1.653301,1.393237,1.354760,1.307670
0.3250,1.821912,1.543896,1.754000,1.763092,1.598361,1.558587,1.642534,1.571316,1.655646,1.911407,1.879236,1.828263
0.3262,1.813011,1.543368,1.753139,1.765342,1.599701,1.557968,1.643920,1.575577,1.655936,2.295821,2.267283,2.207995
0.3275,1.808511,1.544279,1.754526,1.765820,1.599651,1.556001,1.643635,1.575911,1.655886,2.413081,2.388997,2.323428
0.3287,1.807651,1.543942,1.756868,1.765150,1.599413,1.555048,1.642630,1.575577,1.654690,2.395448,2.374837,2.306832
0.3300,1.808271,1.543752,1.757541,1.763762,1.599175,1.554374,1.641578,1.573713,1.653827,2.300303,2.281906,2.213062
0.3312,1.812052,1.544708,1.758260,1.763714,1.599220,1.554330,1.641051,1.571796,1.653301,2.169339,2.150239,2.082899
0.3325,1.815259,1.545570,1.758591,1.763667,1.599220,1.554714,1.640858,1.569689,1.653638,2.029381,2.008462,1.942719
0.3337,1.818180,1.545042,1.758544,1.763284,1.599651,1.555141,1.640477,1.567680,1.653638,1.898158,1.875804,1.811874
0.3350,1.822341,1.546002,1.758402,1.762757,1.600128,1.555908,1.639902,1.565768,1.653541,1.784535,1.757832,1.695077
0.3362,1.828900,1.547149,1.760125,1.760316,1.598550,1.555810,1.637555,1.561507,1.652345,1.545729,1.511624,1.446131
0.3375,1.838423,1.548155,1.760462,1.757013,1.596446,1.556193,1.635213,1.556244,1.650669,1.148845,1.109510,1.046069
0.3387,1.847947,1.548106,1.759647,1.754094,1.595438,1.557009,1.633488,1.550884,1.649427,0.754787,0.710982,0.653861
0.3400,1.852112,1.547965,1.759884,1.753664,1.595681,1.558396,1.634160,1.549829,1.649474,0.584271,0.539217,0.488815
0.3412,1.851682,1.547866,1.758450,1.754094,1.596351,1.559738,1.635116,1.552129,1.650480,0.653504,0.606984,0.560802
0.3425,1.846177,1.548394,1.757157,1.757062,1.597448,1.561075,1.637651,1.557920,1.652728,0.941441,0.896412,0.853906
0.3438,1.834164,1.545809,1.756107,1.759981,1.599413,1.561650,1.641100,1.564955,1.655073,1.396776,1.356368,1.310633
0.3450,1.821336,1.544901,1.754478,1.762997,1.601711,1.562176,1.644688,1.572372,1.657372,1.914719,1.882018,1.832679
0.3463,1.812482,1.544803,1.755051,1.764240,1.602956,1.560740,1.645934,1.576773,1.657275,2.296828,2.268427,2.210395
0.3475,1.807935,1.544374,1.757016,1.764575,1.602237,1.558779,1.645456,1.577015,1.656412,2.410970,2.387760,2.323725
0.3488,1.806981,1.544662,1.758355,1.763570,1.602143,1.557009,1.644403,1.576202,1.655696,2.392623,2.372550,2.305824
0.3500,1.808846,1.546431,1.759984,1.763189,1.602093,1.555141,1.643157,1.574667,1.654880,2.296309,2.278011,2.211729
0.3513,1.810999,1.546576,1.761418,1.763379,1.602713,1.555766,1.642775,1.573331,1.654787,2.164436,2.146683,2.081210
0.3525,1.814063,1.547293,1.762085,1.763092,1.602669,1.556626,1.642340,1.571176,1.655263,2.025030,2.005494,1.940881
0.3538,1.817845,1.548633,1.762279,1.763379,1.603289,1.557776,1.642201,1.569356,1.655553,1.895235,1.872558,1.811192
0.3550,1.821434,1.549400,1.762804,1.763762,1.603864,1.558445,1.641911,1.568208,1.655983,1.781028,1.755050,1.695284
0.3563,1.828805,1.549829,1.761659,1.760605,1.602093,1.558061,1.639279,1.564427,1.653924,1.540339,1.507141,1.444057
0.3575,1.839524,1.550261,1.761607,1.757253,1.600321,1.558445,1.636502,1.557537,1.651625,1.144072,1.104502,1.043342
0.3588,1.849143,1.549685,1.761276,1.754766,1.599076,1.559448,1.635019,1.552560,1.649954,0.749851,0.705448,0.650067
0.3600,1.852972,1.549495,1.760745,1.754429,1.599746,1.560647,1.635739,1.552269,1.650286,0.583297,0.537981,0.489497
0.3613,1.850676,1.548584,1.759600,1.754669,1.600659,1.562225,1.637415,1.555140,1.651533,0.654770,0.609302,0.563914
0.3625,1.844789,1.547149,1.757110,1.756678,1.601185,1.563611,1.640428,1.560311,1.653444,0.948293,0.904449,0.861078
0.3638,1.834022,1.547725,1.756390,1.760124,1.603433,1.563611,1.643205,1.567201,1.655216,1.402524,1.362520,1.317716
0.3650,1.822534,1.546766,1.754384,1.763379,1.605636,1.563228,1.646025,1.574575,1.657178,1.920012,1.886656,1.838132
0.3663,1.814016,1.547054,1.754189,1.764815,1.606832,1.561699,1.646412,1.577969,1.657275,2.299751,2.268984,2.212885
0.3675,1.811335,1.547342,1.755771,1.764529,1.606207,1.560121,1.646122,1.577495,1.656555,2.412497,2.385843,2.323814
0.3688,1.809852,1.546766,1.758450,1.764240,1.606162,1.559113,1.645740,1.577155,1.655840,2.393110,2.370540,2.306121
0.3700,1.810522,1.548011,1.760987,1.763379,1.606450,1.559113,1.644833,1.576202,1.655886,2.296211,2.276589,2.212025
0.3713,1.812818,1.548777,1.761607,1.762517,1.607214,1.559973,1.644688,1.574430,1.656269,2.164046,2.144767,2.080795
0.3725,1.816599,1.549016,1.761896,1.761991,1.608460,1.561075,1.644881,1.572518,1.656126,2.024218,2.002155,1.940022
0.3738,1.820141,1.550645,1.761659,1.761896,1.609417,1.562850,1.644688,1.571273,1.656509,1.894651,1.869869,1.810244
0.3750,1.825358,1.550930,1.761081,1.761656,1.609368,1.563469,1.644494,1.570266,1.656606,1.780411,1.750691,1.693121
0.3762,1.831964,1.551267,1.760987,1.759168,1.607452,1.562894,1.642201,1.565623,1.654690,1.536605,1.499814,1.438752
0.3775,1.841488,1.552030,1.761848,1.756057,1.606495,1.563184,1.640380,1.559401,1.652631,1.137870,1.095938,1.037297
0.3787,1.850724,1.552702,1.762663,1.754048,1.605874,1.564428,1.639327,1.554424,1.651676,0.747026,0.700564,0.648645
0.3800,1.855125,1.552892,1.761896,1.753616,1.605586,1.565764,1.639134,1.553896,1.652059,0.583070,0.535631,0.490445
0.3812,1.853354,1.551506,1.761081,1.753856,1.606589,1.567014,1.639424,1.555716,1.652535,0.657108,0.608993,0.567263
0.3825,1.845412,1.550356,1.758880,1.756775,1.608266,1.568257,1.641626,1.560500,1.654787,0.952677,0.907355,0.867243
0.3837,1.835647,1.549590,1.757446,1.760078,1.611184,1.568975,1.644833,1.567777,1.656412,1.407297,1.365580,1.323110
0.3850,1.824447,1.548967,1.755482,1.763141,1.613913,1.569359,1.647798,1.574861,1.658665,1.925338,1.890675,1.844682
0.3862,1.816217,1.548584,1.755198,1.764672,1.615491,1.568159,1.649189,1.578691,1.659094,2.303225,2.271302,2.217271
0.3875,1.813346,1.548921,1.756438,1.765102,1.615878,1.566581,1.649189,1.579262,1.657898,2.413990,2.385936,2.326125
0.3887,1.811670,1.548967,1.758928,1.765437,1.615973,1.565386,1.648324,1.578163,1.657035,2.392461,2.368994,2.306625
0.3900,1.812005,1.550307,1.761129,1.764912,1.615973,1.564713,1.647653,1.576681,1.655983,2.296211,2.275229,2.212825
0.3912,1.813583,1.549878,1.761754,1.764529,1.616687,1.565578,1.647368,1.576057,1.656223,2.163592,2.142633,2.080647
0.3925,1.817175,1.551552,1.762568,1.764575,1.617357,1.566389,1.647126,1.574667,1.656606,2.024413,2.000702,1.940704
0.3937,1.821241,1.552607,1.762804,1.764097,1.618077,1.567775,1.647368,1.573040,1.656892,1.894813,1.868138,1.811252
0.3950,1.825453,1.552892,1.761848,1.764097,1.619035,1.569068,1.647175,1.571796,1.657082,1.781028,1.751185,1.694840
0.3962,1.832058,1.553993,1.761801,1.761369,1.618315,1.568641,1.645359,1.567298,1.655600,1.533422,1.495702,1.436588
0.3975,1.842107,1.555382,1.762568,1.758355,1.617218,1.569402,1.643442,1.561319,1.653638,1.135596,1.091950,1.035430
0.3987,1.852589,1.555526,1.763571,1.756727,1.616593,1.570794,1.642007,1.557629,1.652825,0.743648,0.695494,0.645473
0.4000,1.856896,1.554425,1.761465,1.756105,1.616787,1.572996,1.643012,1.557246,1.653158,0.584206,0.534828,0.491275
0.4012,1.854505,1.554088,1.760651,1.756727,1.617933,1.574525,1.644833,1.560117,1.653974,0.660648,0.610384,0.570968
0.4025,1.847660,1.553754,1.759358,1.759120,1.620186,1.576103,1.648469,1.565768,1.656029,0.959950,0.911529,0.875008
0.4037,1.837753,1.553469,1.757683,1.762422,1.623248,1.576486,1.651246,1.572561,1.657945,1.415448,1.371423,1.332831
0.4050,1.826699,1.552797,1.755434,1.765771,1.625689,1.576437,1.653685,1.579310,1.659953,1.934008,1.896394,1.853928
0.4062,1.819040,1.552748,1.755198,1.766203,1.626786,1.574624,1.653975,1.582758,1.660147,2.307252,2.272570,2.222013
0.4075,1.815404,1.553659,1.757972,1.766109,1.627888,1.572805,1.654308,1.583140,1.659380,2.414607,2.384112,2.328407
0.4088,1.813871,1.553324,1.759884,1.765868,1.628513,1.572465,1.653926,1.582278,1.658997,2.392883,2.366521,2.307780
0.4100,1.813583,1.552797,1.761512,1.765582,1.629471,1.572323,1.653878,1.580651,1.658134,2.295302,2.271735,2.212440
0.4113,1.816647,1.552987,1.762232,1.764480,1.629803,1.572465,1.653255,1.578260,1.658231,2.163429,2.139449,2.080736
0.4125,1.819999,1.553947,1.762757,1.763954,1.630666,1.574092,1.653110,1.576633,1.658185,2.022594,1.997425,1.940407
0.4138,1.823059,1.554615,1.763666,1.763905,1.631525,1.575867,1.653400,1.575480,1.658951,1.892410,1.865262,1.810096
0.4150,1.826123,1.555621,1.764291,1.763524,1.633058,1.577779,1.653830,1.574812,1.658951,1.777878,1.746486,1.693210
0.4163,1.834452,1.557010,1.763619,1.761274,1.633153,1.578020,1.651864,1.570503,1.656749,1.526700,1.487262,1.431461
0.4175,1.846177,1.558013,1.763282,1.759120,1.631813,1.578305,1.648899,1.564572,1.654690,1.129621,1.083881,1.030688
0.4188,1.855460,1.557678,1.762568,1.757013,1.631480,1.579549,1.647271,1.559643,1.653684,0.742544,0.691568,0.644940
0.4200,1.859530,1.557105,1.762279,1.756775,1.632532,1.581658,1.647749,1.559304,1.653974,0.584726,0.532849,0.492372
0.4213,1.856947,1.556148,1.760940,1.757923,1.633872,1.584096,1.649619,1.561890,1.654976,0.662499,0.610168,0.572924
0.4225,1.850676,1.555670,1.759122,1.761178,1.636601,1.585439,1.651912,1.567109,1.657035,0.962938,0.913106,0.877882
0.4238,1.840387,1.554327,1.757299,1.764432,1.640428,1.586206,1.654931,1.574284,1.659334,1.421228,1.375319,1.337336
0.4250,1.828659,1.553226,1.755004,1.767640,1.644591,1.587066,1.658234,1.581271,1.661153,1.940373,1.900784,1.859144
0.4263,1.821387,1.553803,1.754620,1.768883,1.646556,1.586348,1.659378,1.585726,1.661772,2.310694,2.273559,2.224028
0.4275,1.818658,1.554854,1.755912,1.768596,1.647896,1.585296,1.659765,1.586345,1.662062,2.416751,2.383030,2.328793
0.4288,1.818228,1.554809,1.756727,1.768021,1.648898,1.584956,1.660243,1.586248,1.661822,2.393792,2.362719,2.306150
0.4300,1.820286,1.555189,1.758161,1.767494,1.650620,1.585482,1.660721,1.585483,1.662252,2.296568,2.267345,2.210958
0.4313,1.823205,1.556099,1.759789,1.767256,1.651960,1.586348,1.660915,1.584050,1.662732,2.163592,2.133915,2.078572
0.4325,1.827318,1.556578,1.759789,1.767160,1.653062,1.587400,1.660292,1.582133,1.662972,2.024250,1.992386,1.938629
0.4338,1.829570,1.557200,1.759453,1.765293,1.653399,1.588501,1.659814,1.580075,1.662828,1.895625,1.861645,1.809177
0.4350,1.833159,1.557773,1.759984,1.765007,1.654689,1.590178,1.659572,1.578831,1.662778,1.780931,1.743889,1.692173
0.4363,1.839046,1.558013,1.760556,1.762709,1.654163,1.590271,1.657225,1.574193,1.661485,1.525759,1.481667,1.427104
0.4375,1.849529,1.557872,1.759836,1.759789,1.652918,1.590463,1.654738,1.568639,1.660387,1.127024,1.077296,1.024464
0.4387,1.859912,1.558350,1.759122,1.757159,1.652918,1.591756,1.653540,1.564281,1.659667,0.740856,0.685446,0.638924
0.4400,1.864937,1.559641,1.757494,1.756967,1.654784,1.594051,1.654453,1.564141,1.660147,0.587291,0.529943,0.490742
0.4412,1.864747,1.559880,1.755482,1.758355,1.656605,1.595969,1.656317,1.567061,1.661772,0.670584,0.611250,0.576213
0.4425,1.858717,1.559641,1.754095,1.760940,1.659091,1.598023,1.659668,1.573234,1.663498,0.977323,0.918856,0.887396
0.4437,1.849000,1.558779,1.752083,1.764002,1.662446,1.598982,1.663450,1.580414,1.666702,1.433860,1.378688,1.345426
0.4450,1.838183,1.559690,1.750602,1.767640,1.665890,1.599985,1.667613,1.587924,1.668857,1.951414,1.902453,1.865309
0.4462,1.829042,1.558874,1.750649,1.769217,1.667373,1.598933,1.668521,1.591613,1.668807,2.318033,2.272879,2.227436
0.4475,1.824881,1.558540,1.752944,1.768836,1.668043,1.598073,1.668714,1.591753,1.667994,2.419576,2.379289,2.328259
0.4487,1.823012,1.558730,1.755198,1.767640,1.668138,1.597689,1.668236,1.591371,1.667228,2.395611,2.359565,2.305913
0.4500,1.824353,1.558828,1.757157,1.768070,1.669190,1.597355,1.667516,1.590078,1.666845,2.297120,2.264285,2.210247
0.4512,1.826506,1.558062,1.757683,1.767783,1.670053,1.597497,1.666512,1.588354,1.667279,2.166027,2.132555,2.079106
0.4525,1.831053,1.559546,1.757352,1.767543,1.670673,1.598549,1.665652,1.586442,1.667898,2.025647,1.989851,1.937888
0.4537,1.835359,1.560932,1.756921,1.767113,1.672301,1.599892,1.665459,1.584961,1.668188,1.897736,1.857905,1.808703
0.4550,1.840289,1.561793,1.755676,1.766681,1.672683,1.600417,1.665410,1.582709,1.668188,1.783042,1.738108,1.690483
0.4562,1.849193,1.562655,1.755198,1.764002,1.671730,1.600368,1.662730,1.578545,1.666369,1.525239,1.472485,1.422007
0.4575,1.858765,1.563277,1.755482,1.761369,1.671060,1.601086,1.659765,1.572372,1.664310,1.124198,1.065116,1.017114
0.4587,1.867808,1.562848,1.755387,1.759646,1.671060,1.602428,1.658471,1.568063,1.663018,0.741180,0.678398,0.636464
0.4600,1.872020,1.561554,1.753806,1.759120,1.671443,1.603864,1.658234,1.568305,1.663498,0.592682,0.528552,0.493320
0.4612,1.870395,1.561413,1.752514,1.759455,1.672733,1.605107,1.658949,1.570460,1.665026,0.678703,0.613136,0.581192
0.4625,1.863359,1.559975,1.749882,1.761753,1.674792,1.606302,1.661629,1.575820,1.666702,0.986806,0.923215,0.893204
0.4637,1.853500,1.559212,1.747775,1.764432,1.676608,1.607019,1.665217,1.582758,1.668761,1.444446,1.384624,1.352450
0.4650,1.842442,1.559113,1.745769,1.767832,1.679576,1.607260,1.668617,1.589744,1.670773,1.962519,1.908915,1.872747
0.4662,1.833254,1.559831,1.746867,1.768836,1.680822,1.606115,1.669047,1.593192,1.671106,2.325794,2.275476,2.230785
0.4675,1.830765,1.559497,1.748495,1.768788,1.680678,1.604247,1.668762,1.593477,1.669527,2.425616,2.380093,2.330719
0.4688,1.829858,1.560597,1.750218,1.768310,1.680439,1.602477,1.668424,1.592136,1.668571,2.400189,2.357989,2.306150
0.4700,1.830863,1.561364,1.752130,1.768261,1.680678,1.601568,1.667897,1.590224,1.668281,2.302381,2.262306,2.210543
0.4713,1.833636,1.561364,1.753044,1.767783,1.680152,1.601710,1.666845,1.588645,1.668664,2.169372,2.129031,2.077683
0.4725,1.837418,1.561554,1.753806,1.767016,1.680152,1.602669,1.665889,1.587207,1.668954,2.029446,1.987254,1.937533
0.4738,1.841007,1.562799,1.752992,1.766633,1.679814,1.603623,1.665744,1.585435,1.669190,1.902120,1.856853,1.809414
0.4750,1.844931,1.563277,1.752466,1.765771,1.678956,1.603913,1.665174,1.583377,1.669047,1.787783,1.738294,1.691432
0.4763,1.853354,1.564332,1.751652,1.762471,1.676465,1.602477,1.662585,1.578017,1.667039,1.526668,1.468559,1.419310
0.4775,1.864317,1.565528,1.751941,1.759263,1.674599,1.602812,1.659620,1.572038,1.666032,1.126374,1.061375,1.014891
0.4788,1.874031,1.566196,1.752130,1.756918,1.673259,1.604055,1.658277,1.567777,1.665460,0.743551,0.674904,0.635812
0.4800,1.876854,1.564378,1.750791,1.756489,1.672112,1.604247,1.658186,1.567249,1.665409,0.594793,0.525955,0.492550
0.4813,1.875371,1.563854,1.749404,1.756824,1.670961,1.604581,1.659572,1.569549,1.666416,0.680326,0.610292,0.580777
0.4825,1.869436,1.564522,1.747539,1.758976,1.671199,1.605491,1.662779,1.575006,1.668474,0.993592,0.924204,0.897887
0.4838,1.858765,1.562609,1.745816,1.761369,1.672157,1.605540,1.665937,1.582133,1.670676,1.452305,1.387406,1.358289
0.4850,1.847900,1.562753,1.744093,1.764386,1.672971,1.605348,1.669718,1.589362,1.673261,1.969176,1.910584,1.877519
0.4863,1.840001,1.562753,1.744046,1.765055,1.671443,1.603097,1.670148,1.593429,1.672878,2.329886,2.274270,2.232178
0.4875,1.836223,1.562799,1.745721,1.764912,1.669383,1.600752,1.669525,1.594054,1.672112,2.428766,2.377898,2.330838
0.4888,1.834259,1.562416,1.748112,1.764337,1.666942,1.598505,1.668236,1.593957,1.671392,2.400547,2.354433,2.304343
0.4900,1.834354,1.563087,1.750460,1.763859,1.665076,1.597064,1.667613,1.592044,1.671918,2.301147,2.257669,2.208232
0.4913,1.837228,1.563182,1.750838,1.762517,1.662828,1.596111,1.666941,1.590030,1.671872,2.168950,2.124857,2.076053
0.4925,1.841105,1.564761,1.751846,1.761609,1.660292,1.595437,1.666179,1.588500,1.672015,2.028277,1.982431,1.934865
0.4938,1.845124,1.565623,1.751799,1.761466,1.658853,1.595821,1.665362,1.587067,1.672735,1.899652,1.850732,1.805591
0.4950,1.847612,1.566055,1.751558,1.760891,1.656699,1.595969,1.664213,1.585392,1.672781,1.784925,1.732080,1.687372
0.4963,1.854983,1.566580,1.751988,1.757637,1.652298,1.594150,1.660915,1.580124,1.670483,1.519199,1.459810,1.412464
0.4975,1.864124,1.566006,1.752897,1.755244,1.648611,1.592714,1.657321,1.574047,1.668378,1.117477,1.052811,1.007719
0.4988,1.872118,1.565672,1.754667,1.753472,1.644115,1.593191,1.655694,1.569070,1.667228,0.734361,0.667114,0.628047
0.5000,1.874559,1.565623,1.754336,1.752228,1.641192,1.593624,1.656032,1.568785,1.667228,0.590376,0.523142,0.491127
0.5012,1.871830,1.565767,1.754478,1.752325,1.639708,1.593766,1.657370,1.571128,1.668045,0.678021,0.610972,0.582763
0.5025,1.864700,1.565096,1.753953,1.754574,1.639038,1.593525,1.659668,1.576584,1.669384,0.991124,0.926399,0.900999
0.5038,1.852782,1.564427,1.752755,1.757780,1.638130,1.593049,1.662252,1.583953,1.671918,1.450097,1.390653,1.363179
0.5050,1.841823,1.563805,1.750985,1.760940,1.638224,1.592183,1.664884,1.590606,1.674554,1.966773,1.914294,1.882646
0.5062,1.833254,1.563854,1.751510,1.761896,1.636120,1.589745,1.665507,1.593526,1.673880,2.322060,2.272694,2.232415
0.5075,1.829187,1.564476,1.754526,1.762136,1.634160,1.586923,1.664932,1.593908,1.673211,2.417368,2.373539,2.328467
0.5088,1.826553,1.564044,1.756632,1.761801,1.631525,1.584003,1.664073,1.593192,1.671775,2.387135,2.347694,2.299897
0.5100,1.826411,1.563277,1.759311,1.762328,1.629371,1.582518,1.663402,1.592233,1.670819,2.286859,2.250775,2.202690
0.5112,1.828371,1.564716,1.761559,1.761609,1.627173,1.581132,1.662155,1.589507,1.670150,2.153817,2.118303,2.070393
0.5125,1.831435,1.564332,1.762037,1.760605,1.624776,1.580557,1.660866,1.586728,1.670196,2.014054,1.976990,1.930805
0.5138,1.834977,1.564856,1.761896,1.760078,1.622528,1.580075,1.659717,1.584287,1.669910,1.885429,1.846404,1.802242
0.5150,1.837706,1.566055,1.763282,1.759886,1.620806,1.579357,1.658949,1.582472,1.668904,1.768883,1.727195,1.683608
0.5162,1.843593,1.566868,1.764191,1.757637,1.616831,1.577878,1.655597,1.577015,1.666272,1.498514,1.450535,1.403870
0.5175,1.853212,1.566341,1.764958,1.754717,1.612767,1.576536,1.652299,1.570460,1.663544,1.095460,1.042053,0.997495
0.5188,1.861924,1.567107,1.765342,1.753043,1.610087,1.576629,1.650333,1.565623,1.662538,0.716176,0.658921,0.621053
0.5200,1.864554,1.566675,1.764433,1.752946,1.608360,1.576821,1.650333,1.565434,1.662109,0.576413,0.518875,0.486919
0.5212,1.861108,1.565289,1.764002,1.753424,1.606589,1.577012,1.650720,1.568257,1.661869,0.667305,0.610539,0.581400
0.5225,1.852542,1.563277,1.762999,1.756632,1.606589,1.576821,1.653685,1.573282,1.662921,0.985312,0.932057,0.904911
0.5238,1.841389,1.562609,1.762037,1.760030,1.606450,1.576010,1.656558,1.579213,1.664454,1.443829,1.396434,1.366439
0.5250,1.829523,1.561892,1.761228,1.763667,1.607452,1.575434,1.659427,1.586011,1.665700,1.960506,1.919704,1.885995
0.5262,1.819999,1.561842,1.762710,1.764864,1.606733,1.573232,1.660480,1.588979,1.666129,2.311214,2.275290,2.232830
0.5275,1.816359,1.561747,1.764911,1.763667,1.605011,1.570838,1.660195,1.588548,1.665552,2.406034,2.374343,2.327370
0.5288,1.814588,1.561987,1.767306,1.762806,1.603195,1.568542,1.659475,1.587783,1.665026,2.376452,2.349147,2.299541
0.5300,1.816122,1.562799,1.769077,1.761944,1.601373,1.566532,1.657708,1.585866,1.663830,2.276630,2.251486,2.201830
0.5312,1.818563,1.564139,1.770752,1.761418,1.600177,1.565912,1.656365,1.583905,1.664167,2.142419,2.117438,2.068437
0.5325,1.821576,1.563900,1.770847,1.760651,1.599175,1.566723,1.656413,1.582375,1.664310,1.999863,1.973867,1.925915
0.5337,1.824210,1.564044,1.771756,1.760748,1.598649,1.567348,1.655839,1.580603,1.665266,1.870394,1.842014,1.796493
0.5350,1.827654,1.564955,1.772139,1.760748,1.598505,1.567299,1.655167,1.578594,1.665077,1.753296,1.721414,1.676554
0.5363,1.834977,1.566675,1.773862,1.758355,1.596302,1.565671,1.651531,1.573471,1.662681,1.481401,1.442466,1.395927
0.5375,1.844931,1.567251,1.773337,1.755579,1.593096,1.565386,1.647991,1.566533,1.660433,1.080230,1.035252,0.990412
0.5387,1.853930,1.566819,1.773001,1.753567,1.591230,1.565386,1.645595,1.561841,1.659763,0.704064,0.655088,0.616815
0.5400,1.857089,1.565623,1.772806,1.753281,1.590317,1.565430,1.645311,1.561076,1.659427,0.564723,0.515165,0.483362
0.5413,1.853690,1.564332,1.771561,1.754142,1.589841,1.565912,1.646025,1.563279,1.660193,0.659414,0.610106,0.581162
0.5425,1.846129,1.562655,1.769938,1.756009,1.591563,1.566482,1.648754,1.568688,1.661965,0.979856,0.933355,0.905681
0.5437,1.836412,1.562560,1.768646,1.759408,1.593334,1.566964,1.651531,1.575911,1.663544,1.440517,1.398165,1.369491
0.5450,1.824546,1.561793,1.766345,1.762806,1.595012,1.567249,1.654883,1.582472,1.665363,1.957648,1.921806,1.888188
0.5463,1.815452,1.562032,1.766970,1.764912,1.595056,1.564713,1.655645,1.585726,1.665077,2.306927,2.274796,2.231674
0.5475,1.811622,1.561364,1.768168,1.764767,1.594580,1.562176,1.654689,1.585483,1.663830,2.398273,2.371437,2.323399
0.5487,1.810712,1.561076,1.770033,1.764051,1.593096,1.559639,1.653255,1.583905,1.662395,2.368528,2.345870,2.294800
0.5500,1.810617,1.560502,1.772617,1.763714,1.592327,1.559113,1.651864,1.581465,1.661342,2.266563,2.247250,2.195310
0.5513,1.812293,1.560119,1.773862,1.762566,1.592377,1.558730,1.651101,1.579359,1.661296,2.133100,2.113944,2.062539
0.5525,1.815452,1.560552,1.774246,1.761847,1.592282,1.558779,1.650145,1.576536,1.661153,1.993011,1.971580,1.921025
0.5537,1.819565,1.561315,1.773384,1.761321,1.591563,1.559305,1.649141,1.573999,1.660627,1.865458,1.841149,1.792610
0.5550,1.823442,1.562131,1.772523,1.760794,1.591037,1.558922,1.647271,1.571990,1.660479,1.748977,1.719250,1.672198
0.5563,1.832394,1.564811,1.772570,1.759025,1.588739,1.558779,1.644784,1.567346,1.658568,1.474581,1.437798,1.388014
0.5575,1.841870,1.564906,1.773573,1.756535,1.586635,1.558779,1.642389,1.562035,1.656223,1.069839,1.027492,0.980009
0.5587,1.850676,1.564139,1.773768,1.754909,1.584958,1.559354,1.640955,1.557155,1.655360,0.696725,0.651409,0.611066
0.5600,1.852352,1.563038,1.773431,1.754382,1.584576,1.560023,1.641336,1.556627,1.655073,0.561995,0.517113,0.482414
0.5613,1.850818,1.562032,1.772475,1.755244,1.585965,1.561601,1.643109,1.559449,1.655503,0.657011,0.611219,0.580036
0.5625,1.844453,1.561793,1.770752,1.757494,1.588213,1.562943,1.646552,1.565908,1.657178,0.978947,0.933788,0.905770
0.5637,1.835742,1.561459,1.767543,1.759886,1.589985,1.563184,1.649425,1.572421,1.659140,1.443018,1.400978,1.371418
0.5650,1.825118,1.561125,1.765053,1.763476,1.591086,1.563042,1.651724,1.578831,1.660959,1.959857,1.923136,1.889551
0.5663,1.816217,1.560597,1.765631,1.764767,1.591086,1.560598,1.651676,1.581750,1.660913,2.305628,2.272694,2.229155
0.5675,1.811094,1.560647,1.767684,1.764624,1.591419,1.558538,1.650811,1.581562,1.659860,2.394994,2.367665,2.318835
0.5687,1.808416,1.560886,1.770369,1.764672,1.591037,1.556818,1.650811,1.581368,1.659191,2.362261,2.340151,2.288487
0.5700,1.808653,1.560552,1.772712,1.764386,1.591086,1.555859,1.650048,1.579310,1.658471,2.261205,2.241840,2.189768
0.5713,1.811812,1.560453,1.773862,1.763476,1.590511,1.555623,1.649758,1.576870,1.658088,2.128294,2.108781,2.057560
0.5725,1.815069,1.561076,1.773573,1.762806,1.590461,1.556100,1.649280,1.574667,1.658614,1.986517,1.965149,1.914950
0.5737,1.818180,1.561459,1.773957,1.762663,1.590987,1.557009,1.648276,1.572755,1.658614,1.857275,1.834131,1.786031
0.5750,1.821482,1.561842,1.774293,1.762614,1.591131,1.557585,1.647223,1.570460,1.657608,1.739495,1.712943,1.664937
0.5763,1.829953,1.562177,1.773573,1.759503,1.588595,1.556818,1.643920,1.564955,1.654787,1.464482,1.429884,1.379390
0.5775,1.841918,1.563133,1.773237,1.755962,1.586253,1.556527,1.641100,1.558587,1.653065,1.061850,1.019887,0.971770
0.5787,1.852301,1.562992,1.772092,1.754239,1.585340,1.557535,1.638994,1.553944,1.652585,0.689613,0.642752,0.601730
0.5800,1.854841,1.562560,1.771897,1.753951,1.585007,1.558160,1.638516,1.553562,1.652728,0.557611,0.510064,0.476012
0.5813,1.851777,1.561603,1.770700,1.755579,1.585295,1.558686,1.639569,1.555765,1.653208,0.656718,0.609951,0.577991
0.5825,1.844264,1.559880,1.767926,1.758450,1.586967,1.559831,1.642056,1.561604,1.655120,0.980733,0.936570,0.905978
0.5837,1.834022,1.559212,1.766681,1.761944,1.588977,1.560647,1.645311,1.568257,1.657372,1.443764,1.404379,1.372603
0.5850,1.821912,1.558972,1.765200,1.765342,1.591086,1.560790,1.648996,1.575723,1.660050,1.960279,1.926629,1.889670
0.5863,1.814016,1.559451,1.765914,1.766252,1.591374,1.558828,1.649807,1.578497,1.659574,2.302608,2.271890,2.226577
0.5875,1.811910,1.559592,1.767017,1.765677,1.591230,1.556768,1.649855,1.578497,1.658757,2.390772,2.364604,2.314626
0.5887,1.810139,1.559736,1.769791,1.765150,1.590655,1.555574,1.649855,1.578545,1.658425,2.357975,2.335730,2.283330
0.5900,1.810617,1.559402,1.771561,1.764002,1.590129,1.555191,1.648996,1.577301,1.657178,2.255100,2.236368,2.182833
0.5913,1.812245,1.559307,1.773142,1.763332,1.590416,1.555191,1.648566,1.575389,1.657515,2.120110,2.101176,2.048669
0.5925,1.816217,1.560692,1.773573,1.762949,1.589841,1.556001,1.648227,1.573374,1.657035,1.979698,1.958503,1.907926
0.5938,1.819376,1.560837,1.773526,1.762901,1.589459,1.556242,1.647223,1.571316,1.657418,1.851494,1.828195,1.778978
0.5950,1.823110,1.561793,1.773284,1.763092,1.589603,1.556341,1.645837,1.569641,1.656892,1.734105,1.706142,1.658091
0.5962,1.831388,1.562082,1.772712,1.760078,1.587925,1.554900,1.642201,1.564238,1.654261,1.455195,1.419558,1.368573
0.5975,1.842060,1.562894,1.772617,1.757637,1.586059,1.554949,1.638752,1.557726,1.652299,1.050647,1.007953,0.959708
0.5988,1.850053,1.561747,1.773095,1.755914,1.584720,1.555958,1.636265,1.552177,1.650956,0.680229,0.634653,0.593343
0.6000,1.853354,1.562275,1.772759,1.756105,1.585052,1.558061,1.637367,1.552080,1.651149,0.552708,0.506726,0.471537
0.6012,1.851441,1.560981,1.770369,1.756678,1.585965,1.559354,1.638607,1.554709,1.651149,0.653861,0.606860,0.575057
0.6025,1.844501,1.560647,1.768168,1.759503,1.587781,1.561031,1.641626,1.560408,1.653208,0.982357,0.937281,0.907519
0.6038,1.833254,1.558589,1.766923,1.762852,1.589746,1.561365,1.645117,1.567346,1.655600,1.443570,1.404472,1.371833
0.6050,1.820716,1.557728,1.765100,1.765725,1.591131,1.560505,1.647943,1.573805,1.656938,1.959175,1.927062,1.889107
0.6062,1.811812,1.556866,1.765631,1.767065,1.591230,1.558253,1.648372,1.576439,1.656269,2.296114,2.267809,2.221212
0.6075,1.809229,1.557488,1.767543,1.766873,1.591374,1.556292,1.648324,1.576821,1.655936,2.382459,2.357927,2.307010
0.6088,1.809039,1.558396,1.770033,1.766298,1.590272,1.554900,1.648227,1.576681,1.655646,2.348882,2.327939,2.275003
0.6100,1.808846,1.557583,1.771708,1.765917,1.589890,1.554473,1.647943,1.575437,1.655170,2.247242,2.228578,2.174742
0.6112,1.811528,1.558589,1.773284,1.765485,1.590272,1.554900,1.647416,1.573999,1.655360,2.112122,2.094344,2.040964
0.6125,1.814206,1.558589,1.774577,1.765293,1.591181,1.555092,1.646509,1.571607,1.655263,1.970215,1.951516,1.899450
0.6138,1.816457,1.559880,1.775296,1.764624,1.591181,1.556385,1.645644,1.569598,1.655886,1.840973,1.820034,1.769702
0.6150,1.821194,1.560407,1.774577,1.762997,1.590129,1.556193,1.644403,1.567874,1.655646,1.723161,1.697517,1.648429
0.6162,1.829330,1.561747,1.775007,1.760316,1.588451,1.555623,1.641336,1.562606,1.653541,1.440907,1.407099,1.356422
0.6175,1.839954,1.563326,1.774771,1.757159,1.586824,1.555908,1.638419,1.556341,1.651819,1.036489,0.995433,0.947380
0.6188,1.850913,1.563805,1.773337,1.754812,1.585727,1.557437,1.637125,1.551935,1.650956,0.670260,0.624512,0.583889
0.6200,1.853307,1.563471,1.772759,1.754766,1.586203,1.558828,1.638468,1.553179,1.651389,0.546927,0.500419,0.466203
0.6212,1.851011,1.562894,1.772423,1.756440,1.586729,1.559973,1.640047,1.555910,1.652299,0.650256,0.603645,0.572775
0.6225,1.843018,1.561459,1.770269,1.759695,1.589121,1.560549,1.642340,1.561841,1.654307,0.982779,0.938363,0.908467
0.6238,1.831916,1.559641,1.768115,1.763092,1.590655,1.560313,1.644591,1.567632,1.656509,1.443570,1.405090,1.373551
0.6250,1.820906,1.559212,1.766298,1.765868,1.591900,1.559831,1.647416,1.573902,1.658374,1.958882,1.927216,1.889255
0.6262,1.813200,1.558013,1.766345,1.766538,1.592089,1.557727,1.647701,1.577301,1.658471,2.294198,2.265429,2.219345
0.6275,1.809181,1.558730,1.768404,1.766443,1.591468,1.556341,1.647894,1.577112,1.657705,2.379179,2.355083,2.304757
0.6288,1.806788,1.558540,1.771131,1.766060,1.590461,1.555475,1.647175,1.576250,1.656749,2.345310,2.325342,2.272928
0.6300,1.807651,1.559067,1.773142,1.765963,1.590893,1.554900,1.646842,1.574236,1.656269,2.242566,2.224744,2.171631
0.6312,1.810999,1.559975,1.774198,1.765199,1.591037,1.554615,1.646315,1.572421,1.656652,2.109687,2.091685,2.039956
0.6325,1.815452,1.561747,1.775060,1.765150,1.590655,1.555766,1.646170,1.570982,1.656892,1.970410,1.949568,1.899479
0.6338,1.818993,1.562321,1.774004,1.765437,1.591131,1.557009,1.645740,1.569641,1.657418,1.844026,1.820466,1.771954
0.6350,1.822775,1.563038,1.773957,1.764912,1.590367,1.557201,1.644784,1.567826,1.656846,1.725435,1.697486,1.650237
0.6362,1.830335,1.563805,1.774004,1.762039,1.588645,1.556577,1.641723,1.562751,1.654930,1.439933,1.405615,1.355384
0.6375,1.839429,1.563516,1.774482,1.759025,1.587161,1.557294,1.639375,1.556815,1.652728,1.036197,0.995618,0.948032
0.6388,1.847805,1.562321,1.774051,1.757397,1.585866,1.558779,1.638033,1.552651,1.651625,0.672046,0.627295,0.586793
0.6400,1.851201,1.561937,1.773142,1.756918,1.585965,1.559546,1.638129,1.552748,1.651916,0.551441,0.506293,0.471685
0.6412,1.849048,1.561892,1.772523,1.758020,1.586635,1.560264,1.638849,1.555382,1.652585,0.658115,0.612177,0.581103
0.6425,1.841918,1.560073,1.770222,1.760030,1.588501,1.560982,1.641239,1.561270,1.654210,0.990605,0.947051,0.917358
0.6438,1.832011,1.559880,1.768693,1.763189,1.590416,1.561508,1.644784,1.568208,1.656080,1.456364,1.417301,1.386384
0.6450,1.821336,1.560312,1.767495,1.765820,1.591994,1.561316,1.647749,1.575243,1.657898,1.970995,1.937820,1.902117
0.6462,1.812293,1.560168,1.768115,1.766922,1.591945,1.559738,1.648851,1.577829,1.657608,2.301991,2.272848,2.228384
0.6475,1.808704,1.560647,1.770800,1.766060,1.591657,1.557486,1.648705,1.578448,1.656846,2.384732,2.360709,2.312285
0.6488,1.808416,1.560692,1.772523,1.765582,1.591900,1.556341,1.648276,1.578260,1.656463,2.350506,2.329608,2.278529
0.6500,1.810376,1.561747,1.774098,1.765150,1.592044,1.555667,1.647798,1.577446,1.656555,2.248184,2.228949,2.178180
0.6512,1.812435,1.561987,1.775491,1.764386,1.591086,1.555574,1.647701,1.575820,1.657082,2.114103,2.094715,2.044994
0.6525,1.815546,1.563277,1.776352,1.764145,1.590893,1.555859,1.647126,1.573374,1.657562,1.972781,1.951763,1.903184
0.6538,1.819376,1.563376,1.776252,1.762806,1.590843,1.556675,1.646170,1.570794,1.657322,1.846169,1.822538,1.776192
0.6550,1.822057,1.563277,1.776541,1.762566,1.590749,1.556719,1.645214,1.568973,1.657275,1.725857,1.699186,1.653290
0.6562,1.829570,1.563949,1.776636,1.759503,1.588550,1.555908,1.641862,1.563468,1.654210,1.437562,1.403822,1.355236
0.6575,1.839906,1.564906,1.777881,1.756918,1.587067,1.555859,1.639424,1.557774,1.652631,1.033242,0.993362,0.947291
0.6587,1.848713,1.564571,1.777403,1.755339,1.585628,1.556626,1.637076,1.553756,1.651579,0.672143,0.628284,0.589905
0.6600,1.851824,1.565194,1.776683,1.755052,1.585052,1.557776,1.637893,1.553804,1.652248,0.554364,0.509323,0.477494
0.6613,1.849718,1.564139,1.775438,1.756343,1.586298,1.559020,1.639569,1.557106,1.653208,0.662888,0.617958,0.589668
0.6625,1.842683,1.563661,1.772328,1.758115,1.587161,1.560215,1.642249,1.562417,1.655170,0.999145,0.954996,0.928709
0.6637,1.832153,1.562894,1.770752,1.761609,1.589553,1.560406,1.646025,1.568828,1.657178,1.467470,1.428276,1.400758
0.6650,1.821004,1.562753,1.769313,1.765247,1.592759,1.560456,1.648663,1.576057,1.658997,1.981126,1.948208,1.915483
0.6663,1.813346,1.563710,1.769791,1.766155,1.593285,1.558686,1.648566,1.578594,1.659140,2.309363,2.279248,2.237957
0.6675,1.810376,1.562514,1.770800,1.766298,1.592759,1.556527,1.647991,1.578879,1.657945,2.389571,2.363739,2.317501
0.6687,1.808653,1.562177,1.773526,1.765820,1.592520,1.555432,1.647701,1.578594,1.657178,2.353266,2.332205,2.283241
0.6700,1.809706,1.563615,1.776399,1.765199,1.592327,1.555191,1.647465,1.577877,1.657755,2.250002,2.231020,2.182329
0.6713,1.812482,1.562799,1.776683,1.764767,1.591657,1.555333,1.646890,1.575960,1.658041,2.116214,2.096910,2.048817
0.6725,1.815739,1.563615,1.778170,1.764575,1.592044,1.555525,1.646552,1.574096,1.657848,1.976872,1.955689,1.909348
0.6737,1.819088,1.564283,1.777308,1.764145,1.592044,1.556577,1.646460,1.572658,1.658231,1.851494,1.827700,1.783097
0.6750,1.821722,1.564427,1.777592,1.763092,1.591037,1.557103,1.646122,1.570885,1.658757,1.731280,1.703978,1.659128
0.6763,1.830670,1.565957,1.778122,1.759598,1.588595,1.556292,1.643683,1.565956,1.656606,1.439608,1.404657,1.357874
0.6775,1.841295,1.566868,1.778453,1.755865,1.586635,1.556242,1.640906,1.559735,1.654593,1.033567,0.991630,0.948032
0.6787,1.849529,1.567251,1.779126,1.754717,1.585727,1.557776,1.639472,1.555619,1.653638,0.672760,0.628253,0.591861
0.6800,1.852447,1.566196,1.777403,1.754861,1.586203,1.559831,1.640095,1.555953,1.653494,0.558975,0.513341,0.483184
0.6813,1.849430,1.566580,1.775969,1.756105,1.586585,1.560839,1.641626,1.558733,1.653974,0.672143,0.625502,0.598678
0.6825,1.841775,1.564617,1.774198,1.758641,1.588357,1.561650,1.644833,1.564378,1.655840,1.011128,0.967702,0.942104
0.6837,1.831723,1.564427,1.772854,1.761753,1.590560,1.562083,1.648227,1.571176,1.657898,1.479680,1.441384,1.414331
0.6850,1.820811,1.563995,1.770322,1.764289,1.593334,1.561842,1.651386,1.578066,1.659380,1.993044,1.960141,1.928108
0.6863,1.813058,1.563516,1.770800,1.764864,1.593528,1.560072,1.651004,1.581319,1.659574,2.316117,2.285863,2.244566
0.6875,1.810139,1.562894,1.771372,1.764672,1.592714,1.557820,1.649141,1.581228,1.658997,2.395026,2.369365,2.323517
0.6887,1.809039,1.563277,1.772712,1.764240,1.592520,1.556911,1.648421,1.580269,1.658471,2.358040,2.336162,2.287717
0.6900,1.809994,1.562704,1.774865,1.764720,1.592089,1.556867,1.648039,1.578642,1.658471,2.255003,2.235472,2.186982
0.6913,1.812628,1.564476,1.776783,1.762949,1.592138,1.556768,1.647749,1.576536,1.658517,2.121020,2.100991,2.053470
0.6925,1.816406,1.564571,1.777308,1.762182,1.591707,1.556385,1.647223,1.574236,1.658711,1.981191,1.959399,1.913083
0.6937,1.820188,1.565479,1.777308,1.762422,1.591324,1.557201,1.647320,1.572706,1.659237,1.854125,1.829772,1.785883
0.6950,1.822487,1.565718,1.777739,1.761896,1.590843,1.557727,1.646267,1.570551,1.659523,1.733326,1.705245,1.661291
0.6963,1.830288,1.566341,1.778170,1.758690,1.589220,1.556960,1.643538,1.565482,1.656749,1.436880,1.402091,1.356185
0.6975,1.839717,1.567346,1.779126,1.755147,1.586536,1.556719,1.641959,1.560074,1.654976,1.030319,0.989528,0.946283
0.6987,1.848042,1.567969,1.779173,1.753713,1.585821,1.557968,1.641100,1.556627,1.654210,0.674871,0.630634,0.594499
0.7000,1.851059,1.567012,1.777786,1.753664,1.585533,1.559212,1.641481,1.556912,1.654261,0.564300,0.518968,0.489201
0.7013,1.849095,1.566485,1.776972,1.755195,1.586010,1.560357,1.643254,1.559929,1.655263,0.678443,0.632829,0.606472
0.7025,1.842347,1.566963,1.775438,1.758210,1.588789,1.561601,1.646460,1.566199,1.657608,1.017330,0.973205,0.949573
0.7037,1.832011,1.565577,1.773237,1.760940,1.590560,1.561792,1.649377,1.572609,1.660336,1.484875,1.446362,1.420910
0.7050,1.819951,1.565528,1.772475,1.764240,1.592615,1.561365,1.651961,1.579213,1.661965,1.996876,1.964717,1.934035
0.7063,1.811528,1.565384,1.773190,1.765102,1.592808,1.558779,1.651337,1.581659,1.661869,2.316604,2.288058,2.248389
0.7075,1.808558,1.565767,1.774818,1.765007,1.592138,1.556434,1.649952,1.581179,1.660862,2.393792,2.369489,2.325266
0.7087,1.808081,1.564716,1.776205,1.763379,1.591612,1.554807,1.648996,1.580172,1.659523,2.355149,2.334586,2.287835
0.7100,1.809659,1.565623,1.777497,1.762374,1.591275,1.554473,1.647943,1.578594,1.659283,2.252373,2.233060,2.186419
0.7113,1.813105,1.566295,1.778789,1.762136,1.590704,1.554758,1.648039,1.577015,1.659334,2.117350,2.097497,2.052166
0.7125,1.816217,1.567395,1.779698,1.762136,1.590704,1.555623,1.647749,1.575771,1.659717,1.977359,1.955597,1.912282
0.7137,1.819663,1.567346,1.779651,1.761226,1.591468,1.556484,1.647894,1.574047,1.659620,1.851430,1.827082,1.785261
0.7150,1.823205,1.566963,1.778884,1.760124,1.590655,1.557152,1.647416,1.572130,1.659523,1.730598,1.702556,1.660284
0.7163,1.830000,1.567251,1.779315,1.756918,1.588883,1.556292,1.644258,1.566533,1.657035,1.430548,1.396155,1.351057
0.7175,1.839954,1.568303,1.779509,1.753999,1.586967,1.555766,1.641529,1.560214,1.655313,1.025806,0.984860,0.942312
0.7188,1.848713,1.567585,1.778264,1.752754,1.585772,1.556434,1.640095,1.556147,1.654501,0.670584,0.626244,0.590676
0.7200,1.852064,1.567874,1.777644,1.752659,1.585866,1.557437,1.640095,1.555953,1.655646,0.561897,0.516588,0.487393
0.7212,1.848425,1.566917,1.776972,1.753904,1.585727,1.558878,1.641529,1.559018,1.656989,0.678443,0.633076,0.607183
0.7225,1.840865,1.565433,1.774913,1.756297,1.586154,1.559639,1.644833,1.564712,1.658568,1.024182,0.981243,0.956567
0.7238,1.830145,1.564522,1.774098,1.759933,1.588119,1.559639,1.648276,1.571559,1.660673,1.492766,1.455605,1.428646
0.7250,1.818946,1.564378,1.772423,1.762517,1.590272,1.559738,1.651434,1.578400,1.662828,2.002916,1.971858,1.939400
0.7262,1.811480,1.564378,1.772906,1.763092,1.590367,1.557393,1.651628,1.581702,1.662635,2.317643,2.290253,2.248952
0.7275,1.807986,1.563854,1.775107,1.762614,1.589553,1.555191,1.650097,1.581799,1.662062,2.392591,2.369891,2.323814
0.7288,1.806022,1.564139,1.777592,1.762182,1.589553,1.553706,1.648754,1.581131,1.660770,2.353526,2.334060,2.286620
0.7300,1.807505,1.564906,1.778984,1.762806,1.589503,1.553421,1.648088,1.579407,1.660530,2.250067,2.232689,2.185263
0.7312,1.810569,1.565577,1.779746,1.762328,1.589647,1.553514,1.647223,1.577495,1.661199,2.115012,2.097003,2.050773
0.7325,1.814686,1.566580,1.780465,1.761656,1.589315,1.554281,1.647175,1.576057,1.661245,1.975119,1.954855,1.909882
0.7338,1.818130,1.567156,1.780176,1.761131,1.589409,1.555333,1.647320,1.574575,1.661822,1.849579,1.826309,1.783957
0.7350,1.822582,1.568447,1.779362,1.760173,1.589077,1.555525,1.645934,1.572324,1.660862,1.726993,1.699341,1.657172
0.7362,1.829905,1.567775,1.779746,1.757588,1.586967,1.555048,1.642534,1.565719,1.658041,1.424638,1.390467,1.346049
0.7375,1.840672,1.568257,1.779746,1.754286,1.584814,1.555623,1.640186,1.559977,1.656366,1.018434,0.977533,0.935851
0.7388,1.849383,1.568591,1.780465,1.752946,1.584144,1.556768,1.639853,1.556530,1.655840,0.668051,0.623400,0.589194
0.7400,1.851919,1.568303,1.778984,1.752851,1.583762,1.557820,1.640332,1.556912,1.655553,0.565015,0.519803,0.491453
0.7412,1.849959,1.568352,1.777644,1.753759,1.583667,1.558160,1.641239,1.559067,1.656555,0.684678,0.639104,0.613970
0.7425,1.841775,1.567156,1.776063,1.756249,1.585439,1.559020,1.644355,1.565143,1.658185,1.031781,0.988137,0.964895
0.7438,1.831676,1.565623,1.773284,1.759360,1.588451,1.559973,1.648324,1.572324,1.660576,1.501859,1.463396,1.438218
0.7450,1.820523,1.566196,1.772906,1.762949,1.591037,1.560023,1.651579,1.579601,1.662972,2.010904,1.978659,1.947816
0.7462,1.812723,1.565289,1.772854,1.763427,1.590893,1.557486,1.651579,1.582041,1.662635,2.322806,2.293994,2.254079
0.7475,1.809087,1.565767,1.774676,1.762566,1.589459,1.555475,1.650859,1.581562,1.661485,2.394409,2.369767,2.324970
0.7488,1.809374,1.565767,1.775107,1.761369,1.588451,1.553898,1.650381,1.581034,1.660576,2.354435,2.332329,2.286294
0.7500,1.809994,1.565911,1.777161,1.760556,1.588451,1.553322,1.650575,1.579601,1.660100,2.249937,2.230092,2.183959
0.7512,1.811429,1.564906,1.779126,1.760124,1.588069,1.553947,1.650285,1.577446,1.659763,2.113941,2.095148,2.049232
0.7525,1.814016,1.565957,1.780371,1.760459,1.588357,1.554856,1.650193,1.575480,1.660673,1.973041,1.952567,1.908104
0.7538,1.818082,1.566485,1.779698,1.760364,1.588833,1.555333,1.648802,1.573331,1.659907,1.848377,1.824794,1.782623
0.7550,1.822582,1.567775,1.780371,1.759933,1.588550,1.555333,1.646745,1.570842,1.659717,1.725889,1.698104,1.655927
0.7562,1.832153,1.567395,1.779315,1.756440,1.585583,1.553229,1.641911,1.564281,1.657275,1.423112,1.387314,1.342611
0.7575,1.843160,1.568591,1.778217,1.753424,1.583667,1.552555,1.638752,1.557968,1.654930,1.017233,0.974132,0.932443
0.7588,1.851154,1.568686,1.778359,1.751606,1.582898,1.553421,1.637221,1.554090,1.653591,0.668928,0.622534,0.588364
0.7600,1.853737,1.568830,1.778170,1.751655,1.583285,1.554758,1.638178,1.554520,1.654210,0.565405,0.518257,0.490742
0.7612,1.849959,1.568159,1.777403,1.753378,1.583474,1.555766,1.639902,1.557440,1.654736,0.685100,0.638764,0.614592
0.7625,1.841389,1.567490,1.776399,1.756392,1.585246,1.557294,1.643780,1.563279,1.656749,1.034281,0.990919,0.967562
0.7638,1.830863,1.565816,1.774146,1.759838,1.587494,1.557776,1.646745,1.570266,1.658328,1.504034,1.466271,1.441004
0.7650,1.819470,1.565096,1.772759,1.762806,1.588689,1.556960,1.649092,1.576633,1.660193,2.012138,1.980391,1.949417
0.7662,1.811717,1.565194,1.772759,1.763524,1.588451,1.554949,1.649092,1.579025,1.659380,2.322157,2.293438,2.253605
0.7675,1.809469,1.565672,1.774340,1.763189,1.588833,1.553087,1.648663,1.579122,1.658281,2.392818,2.368469,2.324199
0.7688,1.808271,1.565528,1.776972,1.762471,1.588501,1.551695,1.647943,1.577926,1.657322,2.352000,2.331556,2.284486
0.7700,1.810569,1.564856,1.778075,1.761753,1.587637,1.550692,1.646697,1.576202,1.657658,2.247177,2.228763,2.181677
0.7712,1.812482,1.564476,1.778837,1.761896,1.588213,1.551120,1.646219,1.573519,1.657418,2.111927,2.093045,2.046002
0.7725,1.814734,1.565145,1.779462,1.761704,1.589121,1.551936,1.646122,1.571559,1.657372,1.969371,1.949321,1.903955
0.7738,1.818275,1.565577,1.779126,1.761561,1.588645,1.551602,1.644972,1.569501,1.657658,1.845844,1.822538,1.779511
0.7750,1.822152,1.567536,1.779940,1.760843,1.587255,1.551312,1.643302,1.567298,1.657608,1.722447,1.694611,1.651956
0.7762,1.829665,1.567395,1.779893,1.757540,1.584720,1.550309,1.639708,1.561076,1.655410,1.415253,1.381656,1.336506
0.7775,1.838183,1.568496,1.781327,1.753999,1.582898,1.550260,1.637028,1.554951,1.653827,1.008140,0.968815,0.926130
0.7788,1.846512,1.567251,1.781085,1.752181,1.581802,1.551838,1.636453,1.551649,1.653827,0.663668,0.621792,0.586497
0.7800,1.849095,1.567202,1.779651,1.752036,1.581896,1.553996,1.637990,1.551983,1.654450,0.562482,0.520143,0.490653
0.7812,1.847182,1.567490,1.777692,1.752419,1.582372,1.555240,1.638994,1.555334,1.655360,0.687308,0.643742,0.617467
0.7825,1.839764,1.565672,1.774913,1.754048,1.584099,1.556719,1.642056,1.561701,1.657801,1.038535,0.996824,0.972393
0.7837,1.829570,1.564427,1.773668,1.756824,1.586491,1.557437,1.645644,1.569501,1.659620,1.510139,1.473938,1.446991
0.7850,1.818323,1.563756,1.772328,1.759789,1.588645,1.557009,1.647991,1.575723,1.661439,2.017756,1.987037,1.954811
0.7863,1.810759,1.564522,1.773001,1.759886,1.588119,1.554615,1.647894,1.578357,1.660862,2.323423,2.296344,2.254850
0.7875,1.807841,1.563949,1.774340,1.759503,1.587067,1.551887,1.646219,1.577538,1.659763,2.392915,2.369705,2.324199
0.7887,1.807411,1.564139,1.777114,1.760413,1.587206,1.549734,1.645789,1.576488,1.659283,2.349597,2.330721,2.283330
0.7900,1.807600,1.563376,1.778406,1.760413,1.587255,1.549832,1.645311,1.575146,1.658997,2.245034,2.228609,2.180581
0.7913,1.809994,1.563805,1.779651,1.761083,1.587881,1.550358,1.645837,1.573762,1.659380,2.110076,2.093324,2.045261
0.7925,1.813346,1.565718,1.779987,1.761466,1.587975,1.551361,1.645789,1.572518,1.659620,1.970053,1.951176,1.904607
0.7937,1.817700,1.566868,1.779698,1.761896,1.587637,1.552128,1.645934,1.570697,1.659860,1.846039,1.823620,1.780430
0.7950,1.821624,1.566773,1.778600,1.761274,1.587206,1.552079,1.643968,1.568591,1.659620,1.722415,1.695507,1.652489
0.7963,1.830575,1.567058,1.779173,1.757445,1.585965,1.550451,1.639853,1.562320,1.657132,1.411746,1.377204,1.332742
0.7975,1.841582,1.567395,1.779173,1.753713,1.584382,1.550260,1.636265,1.556050,1.654736,1.005965,0.964456,0.922811
0.7987,1.851106,1.568447,1.778122,1.752516,1.583474,1.551646,1.635309,1.551649,1.654261,0.664317,0.618639,0.584304
0.8000,1.853354,1.567874,1.776110,1.752708,1.582948,1.552895,1.636265,1.552220,1.655410,0.569723,0.522894,0.495039
0.8013,1.850246,1.568113,1.776110,1.753664,1.582854,1.553229,1.637941,1.555140,1.655553,0.696205,0.649337,0.624669
0.8025,1.842540,1.567680,1.775007,1.756057,1.584243,1.554281,1.640761,1.561173,1.657465,1.048082,1.004367,0.981076
0.8037,1.832058,1.565911,1.772570,1.759025,1.586059,1.553804,1.643732,1.567395,1.658711,1.518874,1.480430,1.454963
0.8050,1.819233,1.564666,1.772186,1.761991,1.587255,1.553613,1.646890,1.573282,1.659860,2.024705,1.993097,1.961627
0.8063,1.811047,1.564666,1.774435,1.762517,1.587831,1.551838,1.647561,1.576342,1.659523,2.326021,2.298724,2.258910
0.8075,1.807363,1.564571,1.777450,1.762852,1.587305,1.550692,1.647320,1.576967,1.658471,2.392396,2.370849,2.325977
0.8087,1.805782,1.564234,1.779556,1.762422,1.586491,1.548967,1.645740,1.575577,1.656938,2.348233,2.330938,2.283982
0.8100,1.806165,1.564716,1.780323,1.761801,1.586536,1.548731,1.645456,1.574527,1.656938,2.243475,2.227681,2.180581
0.8113,1.807935,1.564427,1.781616,1.761418,1.586441,1.548967,1.644591,1.572706,1.657372,2.106732,2.090634,2.043838
0.8125,1.812052,1.564955,1.781757,1.761131,1.586441,1.549684,1.644210,1.570745,1.657275,1.965150,1.947219,1.901228
0.8137,1.816024,1.564716,1.781327,1.760843,1.587161,1.550692,1.643780,1.569118,1.658374,1.840486,1.819848,1.776399
0.8150,1.820906,1.566055,1.780176,1.760316,1.586441,1.550786,1.642679,1.566964,1.658281,1.717057,1.690190,1.647570
0.8163,1.829905,1.567680,1.780034,1.758115,1.584526,1.551268,1.639708,1.561749,1.656080,1.404440,1.370558,1.325985
0.8175,1.842683,1.567969,1.779173,1.755004,1.583141,1.551646,1.637506,1.555813,1.654353,0.999113,0.957129,0.916587
0.8187,1.851584,1.569020,1.778359,1.753378,1.582710,1.553273,1.637415,1.552748,1.654021,0.658245,0.612394,0.578940
0.8200,1.852830,1.568352,1.778600,1.753424,1.583141,1.554714,1.638607,1.553659,1.654736,0.563716,0.518072,0.490030
0.8213,1.849193,1.567156,1.777881,1.753951,1.584000,1.555284,1.639950,1.556293,1.655646,0.693348,0.648163,0.622891
0.8225,1.840194,1.565577,1.776158,1.756105,1.584814,1.555716,1.643060,1.562035,1.657705,1.049706,1.007304,0.983062
0.8237,1.830000,1.564522,1.774246,1.759503,1.586873,1.555574,1.645837,1.568688,1.659334,1.520888,1.484511,1.457926
0.8250,1.818465,1.563995,1.771992,1.761753,1.588595,1.554473,1.647416,1.574909,1.660719,2.025030,1.993530,1.961331
0.8263,1.811670,1.563471,1.772281,1.761944,1.587637,1.551985,1.647320,1.577204,1.660003,2.322384,2.294489,2.253457
0.8275,1.808416,1.563756,1.774482,1.761656,1.586680,1.549734,1.646412,1.576439,1.659574,2.387428,2.364512,2.318272
0.8287,1.806835,1.562848,1.776252,1.761034,1.586680,1.549065,1.645934,1.575577,1.659140,2.342420,2.323302,2.275803
0.8300,1.807218,1.563566,1.778264,1.761034,1.586923,1.548824,1.645311,1.574193,1.658854,2.236428,2.219860,2.171245
0.8313,1.809374,1.563516,1.779793,1.760794,1.586298,1.548923,1.645021,1.572658,1.658517,2.099490,2.083276,2.035748
0.8325,1.812770,1.564811,1.780654,1.760651,1.586873,1.549925,1.645214,1.570885,1.659191,1.959175,1.940943,1.895419
0.8337,1.815689,1.565096,1.781232,1.759743,1.587017,1.550977,1.645311,1.569356,1.658808,1.834836,1.813727,1.770176
0.8350,1.818898,1.564856,1.781185,1.759217,1.586635,1.551076,1.644591,1.567923,1.658517,1.708614,1.683790,1.640042
0.8363,1.828087,1.565862,1.780607,1.756105,1.584526,1.550402,1.641814,1.561841,1.655886,1.393431,1.360974,1.315020
0.8375,1.839859,1.567920,1.780607,1.753232,1.581608,1.550019,1.638033,1.555237,1.653351,0.988592,0.948844,0.906630
0.8387,1.849383,1.568398,1.779556,1.751031,1.580794,1.551076,1.636550,1.551315,1.652682,0.651393,0.607385,0.573161
0.8400,1.852782,1.568208,1.779556,1.750985,1.580745,1.552369,1.637028,1.551601,1.653591,0.563359,0.518535,0.491186
0.8413,1.848476,1.568159,1.779362,1.753089,1.582328,1.554182,1.638516,1.555097,1.654976,0.695621,0.651409,0.627573
0.8425,1.840387,1.567202,1.777545,1.755244,1.584288,1.554522,1.640761,1.560645,1.656223,1.054154,1.011540,0.988782
0.8438,1.830145,1.566724,1.776205,1.758641,1.586729,1.554807,1.644065,1.567298,1.657848,1.527252,1.490230,1.465899
0.8450,1.818610,1.567395,1.775632,1.761274,1.589077,1.555382,1.646938,1.574236,1.659953,2.028667,1.997425,1.968414
0.8462,1.811240,1.568496,1.777592,1.762374,1.589171,1.553848,1.647991,1.576342,1.660193,2.322774,2.295231,2.258732
0.8475,1.809469,1.569165,1.779173,1.761801,1.588069,1.551838,1.648324,1.576439,1.659523,2.386713,2.363337,2.322480
0.8488,1.809706,1.570698,1.781710,1.761704,1.588501,1.550835,1.648802,1.576008,1.658665,2.341803,2.320859,2.280456
0.8500,1.809757,1.570793,1.783575,1.760986,1.588501,1.550786,1.648276,1.574527,1.658328,2.235909,2.217139,2.176610
0.8512,1.810329,1.571366,1.786543,1.761369,1.588595,1.551695,1.648276,1.572992,1.658951,2.099036,2.081823,2.041794
0.8525,1.812723,1.572706,1.787741,1.761034,1.588451,1.552462,1.648276,1.571747,1.659667,1.957941,1.939397,1.902028
0.8538,1.816505,1.573279,1.788171,1.760316,1.588977,1.552462,1.647368,1.570029,1.659620,1.835323,1.814407,1.778948
0.8550,1.820571,1.575101,1.789128,1.760459,1.588833,1.553656,1.646600,1.568111,1.659810,1.709523,1.683698,1.648844
0.8562,1.829760,1.577253,1.790373,1.757780,1.587305,1.553706,1.643732,1.563231,1.658088,1.392327,1.359057,1.323733
0.8575,1.840052,1.578498,1.791092,1.754669,1.585439,1.554330,1.640761,1.557246,1.656555,0.985149,0.945134,0.913150
0.8588,1.848807,1.578354,1.790803,1.753186,1.584769,1.555958,1.639950,1.554424,1.656320,0.652594,0.609580,0.585460
0.8600,1.850294,1.578403,1.791092,1.754239,1.584576,1.557059,1.641100,1.554951,1.657275,0.567743,0.524378,0.506834
0.8612,1.847037,1.577063,1.789322,1.755387,1.585295,1.557968,1.642818,1.557774,1.658231,0.706240,0.662476,0.648289
0.8625,1.838041,1.575674,1.786974,1.758258,1.587206,1.558686,1.645499,1.563947,1.660100,1.066819,1.025730,1.011394
0.8638,1.828182,1.575003,1.784531,1.761704,1.589603,1.559354,1.649092,1.570934,1.661919,1.543229,1.508037,1.491830
0.8650,1.816742,1.574763,1.783575,1.765342,1.591851,1.559595,1.651773,1.576918,1.663974,2.045066,2.015356,1.993427
0.8662,1.810187,1.574718,1.783722,1.765963,1.591851,1.558160,1.652584,1.579262,1.664264,2.335049,2.308493,2.278737
0.8675,1.807458,1.575003,1.785298,1.765055,1.591324,1.556341,1.652106,1.578976,1.663687,2.397234,2.374312,2.340321
0.8688,1.807600,1.575530,1.786974,1.764097,1.591419,1.555766,1.652487,1.579359,1.663401,2.349856,2.329454,2.293673
0.8700,1.809469,1.576441,1.788460,1.764240,1.591181,1.555766,1.652347,1.578114,1.663498,2.243118,2.224497,2.189235
0.8712,1.811910,1.578115,1.790514,1.764432,1.591707,1.555623,1.651821,1.576536,1.663687,2.105660,2.086924,2.052789
0.8725,1.814016,1.577348,1.791954,1.764097,1.591657,1.555810,1.651149,1.574236,1.664024,1.963526,1.944282,1.911512
0.8738,1.816742,1.578449,1.793435,1.763570,1.591657,1.556719,1.650811,1.572900,1.663881,1.838960,1.817127,1.786446
0.8750,1.821769,1.579167,1.792432,1.762757,1.591230,1.556911,1.650381,1.571031,1.664117,1.709913,1.682925,1.652489
0.8762,1.832153,1.580507,1.791423,1.759360,1.589553,1.556626,1.648421,1.565052,1.661679,1.387879,1.352256,1.320354
0.8775,1.844311,1.581751,1.791329,1.756200,1.587687,1.557152,1.646648,1.559783,1.660147,0.979239,0.935705,0.907163
0.8788,1.853117,1.581322,1.790467,1.754429,1.587737,1.558160,1.645359,1.556433,1.659477,0.648827,0.601697,0.580481
0.8800,1.854841,1.580366,1.788791,1.755865,1.588163,1.560121,1.646122,1.557629,1.660003,0.565210,0.517886,0.502270
0.8812,1.850676,1.578115,1.786785,1.758210,1.589359,1.561414,1.647175,1.560888,1.660816,0.700135,0.653573,0.640435
0.8825,1.841823,1.576631,1.785587,1.761178,1.591374,1.562417,1.649903,1.566436,1.662778,1.061169,1.017815,1.005141
0.8838,1.831723,1.576965,1.784247,1.764002,1.594198,1.563042,1.654018,1.573950,1.665409,1.535793,1.497959,1.483917
0.8850,1.820429,1.577732,1.783622,1.766155,1.595726,1.563518,1.656940,1.581082,1.667228,2.034317,2.001629,1.981572
0.8862,1.813681,1.577397,1.783575,1.766730,1.595820,1.561842,1.657751,1.583571,1.667182,2.319494,2.289635,2.262377
0.8875,1.811622,1.579167,1.786543,1.766155,1.595538,1.560839,1.657370,1.583286,1.665792,2.378562,2.352919,2.322273
0.8888,1.812005,1.581178,1.789322,1.764864,1.596108,1.560406,1.657321,1.583237,1.665746,2.330470,2.307721,2.276810
0.8900,1.812916,1.582469,1.792001,1.763905,1.596446,1.560740,1.657370,1.582709,1.666226,2.222400,2.200445,2.171631
0.8912,1.816075,1.585293,1.794344,1.762136,1.596634,1.561699,1.657611,1.581562,1.667519,2.084715,2.061543,2.035896
0.8925,1.820381,1.587878,1.796834,1.760940,1.596540,1.562800,1.658277,1.580458,1.668571,1.942841,1.917200,1.895182
0.8938,1.824210,1.589745,1.797265,1.759168,1.596252,1.563852,1.658422,1.579213,1.669333,1.819476,1.790169,1.771332
0.8950,1.828422,1.591373,1.797695,1.756775,1.594674,1.564236,1.657563,1.577112,1.669241,1.691435,1.657327,1.638501
0.8962,1.837848,1.591993,1.796834,1.752946,1.591612,1.562800,1.654593,1.570885,1.666656,1.368492,1.327802,1.306692
0.8975,1.848953,1.591613,1.797070,1.749213,1.588689,1.561699,1.650908,1.564427,1.664310,0.962126,0.914342,0.896553
0.8988,1.856513,1.591229,1.796403,1.746343,1.586298,1.561601,1.648996,1.560263,1.662828,0.635416,0.584694,0.573161
0.9000,1.857424,1.589889,1.794822,1.745767,1.585583,1.562510,1.648899,1.560074,1.662875,0.557124,0.506973,0.500462
0.9012,1.853642,1.588690,1.793771,1.746580,1.584769,1.562702,1.649807,1.562466,1.663064,0.696985,0.647297,0.643606
0.9025,1.844646,1.587495,1.792143,1.748735,1.585772,1.562850,1.652439,1.568014,1.664790,1.061234,1.014415,1.011394
0.9038,1.834977,1.586489,1.790514,1.751463,1.587017,1.562894,1.654979,1.574958,1.666559,1.535988,1.494497,1.489815
0.9050,1.824017,1.586538,1.788649,1.754286,1.588883,1.562225,1.657708,1.581562,1.668091,2.034837,1.997641,1.987174
0.9062,1.818323,1.588071,1.788891,1.754191,1.588213,1.559880,1.657321,1.583857,1.667851,2.316669,2.281504,2.263741
0.9075,1.816742,1.588884,1.790278,1.753378,1.587399,1.557727,1.656843,1.583808,1.668234,2.374276,2.342995,2.321887
0.9087,1.815452,1.589696,1.793146,1.751655,1.586441,1.555908,1.655597,1.582995,1.667519,2.323716,2.296715,2.274291
0.9100,1.816075,1.590846,1.797023,1.750410,1.585866,1.555574,1.655216,1.582230,1.667565,2.215841,2.191201,2.169615
0.9113,1.817128,1.590273,1.798126,1.748638,1.584144,1.555766,1.654641,1.580458,1.667371,2.078967,2.054463,2.033495
0.9125,1.821241,1.590512,1.798315,1.747539,1.582759,1.556149,1.653975,1.578114,1.667805,1.940795,1.914325,1.894500
0.9137,1.825070,1.591708,1.798126,1.746629,1.583186,1.556385,1.653540,1.575723,1.668234,1.818080,1.788376,1.770561
0.9150,1.830335,1.591419,1.795878,1.745192,1.582422,1.556149,1.651961,1.573471,1.668045,1.691598,1.655565,1.636990
0.9163,1.841630,1.593192,1.794922,1.741890,1.580745,1.554615,1.648179,1.567298,1.666319,1.366511,1.321526,1.301772
0.9175,1.853212,1.593333,1.794680,1.738254,1.579549,1.554182,1.645214,1.561362,1.664264,0.960243,0.908036,0.891278
0.9187,1.860441,1.591898,1.792910,1.736866,1.578879,1.554424,1.644113,1.557968,1.663115,0.636585,0.581664,0.571708
0.9200,1.861206,1.589696,1.791665,1.737728,1.578978,1.555716,1.644972,1.558781,1.663498,0.561962,0.507870,0.502181
0.9213,1.857184,1.589074,1.790183,1.739019,1.579405,1.556527,1.646745,1.562083,1.664500,0.704681,0.651130,0.647785
0.9225,1.849095,1.587210,1.788313,1.742130,1.580889,1.557103,1.648996,1.568111,1.665746,1.071820,1.019979,1.017677
0.9237,1.837848,1.586299,1.786974,1.745862,1.583762,1.557727,1.651579,1.574284,1.667994,1.545989,1.501051,1.496661
0.9250,1.826746,1.585388,1.786207,1.749835,1.586203,1.557437,1.654593,1.580458,1.669527,2.042435,2.003237,1.993071
0.9263,1.818898,1.585820,1.786785,1.750696,1.586154,1.555623,1.654453,1.582090,1.669001,2.319559,2.284225,2.264422
0.9275,1.816075,1.585820,1.788555,1.751655,1.585484,1.553514,1.653013,1.581562,1.667948,2.374341,2.344262,2.320050
0.9287,1.814781,1.584671,1.789989,1.751128,1.585151,1.551887,1.651337,1.579644,1.666512,2.324917,2.298260,2.271742
0.9300,1.815739,1.584287,1.791423,1.751320,1.584720,1.551076,1.650478,1.578211,1.665889,2.217010,2.192283,2.165407
0.9313,1.818563,1.585008,1.792526,1.751749,1.585102,1.551027,1.650285,1.576154,1.665552,2.079812,2.055051,2.028842
0.9325,1.821194,1.585581,1.792337,1.752754,1.585772,1.552029,1.649952,1.573568,1.665317,1.940665,1.913366,1.888395
0.9337,1.824353,1.584864,1.791617,1.753232,1.586010,1.552462,1.648996,1.571225,1.664837,1.819054,1.789366,1.764397
0.9350,1.828900,1.583714,1.789700,1.753089,1.585727,1.552654,1.647126,1.568688,1.664024,1.689779,1.655441,1.629136
0.9363,1.836941,1.581656,1.789033,1.750648,1.582948,1.551076,1.642915,1.561653,1.660913,1.361413,1.321248,1.291518
0.9375,1.846035,1.579982,1.787930,1.748112,1.580412,1.549876,1.639617,1.555140,1.657705,0.954365,0.909241,0.879838
0.9387,1.852972,1.579121,1.787310,1.747012,1.580030,1.551887,1.639085,1.551983,1.656555,0.631162,0.584539,0.561395
0.9400,1.853690,1.578449,1.785923,1.747585,1.579936,1.553613,1.640332,1.553228,1.656989,0.558553,0.512043,0.494091
0.9413,1.849813,1.575242,1.784053,1.748973,1.580124,1.553848,1.642056,1.555619,1.657322,0.704096,0.657808,0.641739
0.9425,1.841677,1.574190,1.781947,1.751655,1.581896,1.553898,1.644639,1.560888,1.659380,1.073898,1.030707,1.014654
0.9437,1.830145,1.573184,1.779893,1.755771,1.584050,1.553755,1.647513,1.567395,1.661199,1.551802,1.514592,1.496039
0.9450,1.817795,1.571749,1.778406,1.759886,1.585677,1.553037,1.649377,1.573040,1.661965,2.046527,2.015881,1.989900
0.9463,1.810952,1.570698,1.778695,1.760030,1.584432,1.550019,1.647701,1.573805,1.660770,2.320566,2.293221,2.257784
0.9475,1.808511,1.569692,1.779031,1.759695,1.584099,1.547197,1.645547,1.572324,1.659094,2.374828,2.351527,2.310744
0.9487,1.808034,1.569643,1.779940,1.758736,1.583618,1.545329,1.643538,1.570503,1.657465,2.324398,2.304907,2.261992
0.9500,1.808369,1.567825,1.781852,1.758163,1.583141,1.543800,1.641288,1.567680,1.656749,2.215711,2.198621,2.154501
0.9513,1.810041,1.567730,1.783144,1.757302,1.582134,1.542841,1.639805,1.564330,1.656172,2.079779,2.062996,2.018618
0.9525,1.812388,1.566917,1.784247,1.757972,1.582228,1.543033,1.639042,1.561556,1.655789,1.939593,1.922456,1.879060
0.9537,1.815499,1.567775,1.784153,1.757923,1.581802,1.543702,1.638607,1.559498,1.655073,1.818145,1.798084,1.756543
0.9550,1.819135,1.567775,1.783528,1.756152,1.580844,1.543274,1.637270,1.557677,1.654353,1.687669,1.662644,1.621134
0.9563,1.828371,1.568686,1.784153,1.753329,1.579072,1.543176,1.634874,1.551838,1.652391,1.357062,1.325020,1.282390
0.9575,1.839334,1.570649,1.784484,1.750218,1.577971,1.543132,1.632720,1.546909,1.651436,0.949137,0.910200,0.871096
0.9587,1.848235,1.570170,1.782808,1.748255,1.576919,1.543943,1.631667,1.544086,1.650909,0.631162,0.588775,0.557275
0.9600,1.850818,1.569882,1.780991,1.748209,1.576487,1.545236,1.632054,1.544183,1.650863,0.562157,0.519123,0.492668
0.9613,1.846800,1.568876,1.779604,1.748735,1.576824,1.545904,1.632865,1.546861,1.651579,0.710656,0.667145,0.643606
0.9625,1.837513,1.567441,1.778023,1.752133,1.578928,1.546671,1.635927,1.551935,1.652871,1.081334,1.040847,1.017529
0.9637,1.827129,1.566675,1.776972,1.755627,1.581082,1.547531,1.639569,1.559115,1.655216,1.558459,1.524794,1.499091
0.9650,1.816599,1.566773,1.775632,1.758547,1.582278,1.546479,1.641959,1.565671,1.656463,2.050813,2.022064,1.991145
0.9663,1.809564,1.567730,1.776158,1.759743,1.582516,1.544803,1.641959,1.568397,1.656126,2.321995,2.295880,2.256480
0.9675,1.806551,1.566917,1.777692,1.759646,1.581558,1.542414,1.641433,1.568111,1.655263,2.374341,2.352764,2.309321
0.9688,1.806022,1.566819,1.778937,1.759311,1.580988,1.541647,1.640622,1.567395,1.654880,2.323293,2.305958,2.259888
0.9700,1.807411,1.566196,1.781185,1.759071,1.580988,1.541406,1.639950,1.565434,1.654501,2.215256,2.199270,2.152871
0.9712,1.810999,1.566629,1.781710,1.758450,1.580268,1.540880,1.638849,1.562514,1.654307,2.079260,2.062439,2.016543
0.9725,1.813535,1.566006,1.781185,1.758163,1.581420,1.541165,1.638323,1.560026,1.654644,1.938977,1.919890,1.875415
0.9738,1.817029,1.566868,1.781421,1.758355,1.581702,1.541932,1.638081,1.558157,1.654501,1.816456,1.794528,1.752661
0.9750,1.820716,1.567920,1.782094,1.757685,1.580844,1.542557,1.636695,1.556002,1.654164,1.684226,1.658100,1.615829
0.9762,1.829377,1.568686,1.781516,1.754142,1.579504,1.541883,1.634015,1.550071,1.651482,1.351347,1.318527,1.274862
0.9775,1.839859,1.570121,1.782430,1.750936,1.577112,1.542414,1.630663,1.543893,1.648851,0.943454,0.904017,0.863509
0.9788,1.847324,1.569597,1.781757,1.749786,1.576249,1.543559,1.629229,1.540736,1.648518,0.627655,0.585219,0.552208
0.9800,1.849529,1.569119,1.780849,1.750696,1.577251,1.544518,1.629949,1.541404,1.649331,0.561670,0.518968,0.491601
0.9812,1.846319,1.566868,1.778453,1.752036,1.578209,1.545477,1.631909,1.544754,1.649571,0.711987,0.669649,0.644703
0.9825,1.838281,1.565816,1.776541,1.754861,1.579648,1.546003,1.635261,1.550594,1.651246,1.084387,1.044155,1.020019
0.9838,1.826076,1.564283,1.774771,1.757637,1.581032,1.545855,1.638559,1.556961,1.653254,1.563102,1.529493,1.502885
0.9850,1.815594,1.563231,1.773190,1.760364,1.582898,1.545521,1.639853,1.563419,1.654501,2.055035,2.026980,1.992478
0.9862,1.809804,1.561987,1.772570,1.760748,1.583236,1.544041,1.639569,1.565482,1.654547,2.322579,2.297148,2.254376
0.9875,1.806598,1.561698,1.774051,1.761226,1.583042,1.542222,1.638656,1.564712,1.653591,2.373107,2.352146,2.304906
0.9888,1.805782,1.561220,1.775869,1.760794,1.582660,1.540787,1.637651,1.563947,1.652682,2.319462,2.302960,2.252805
0.9900,1.806165,1.560073,1.776541,1.760459,1.581464,1.539877,1.637076,1.562132,1.651962,2.209378,2.194293,2.143446
0.9912,1.808223,1.561508,1.778553,1.760173,1.581132,1.540162,1.637173,1.560214,1.651533,2.070914,2.055947,2.005756
0.9925,1.811240,1.562321,1.779604,1.760078,1.581226,1.540639,1.637125,1.558539,1.652585,1.931573,1.914758,1.866287
0.9938,1.814734,1.561459,1.778695,1.759360,1.581226,1.541548,1.636695,1.556864,1.653254,1.810091,1.790417,1.743710
0.9950,1.818847,1.561842,1.778453,1.758450,1.580938,1.541981,1.636072,1.555479,1.652682,1.677894,1.653215,1.606108
0.9962,1.827941,1.562799,1.778884,1.755436,1.578834,1.541313,1.633343,1.549877,1.650720,1.343163,1.311973,1.263067
0.9975,1.838901,1.563710,1.778075,1.752133,1.577251,1.541548,1.630711,1.543655,1.649280,0.937739,0.898947,0.853580
0.9988,1.847087,1.563471,1.777644,1.750602,1.576298,1.543083,1.629132,1.540402,1.648754,0.625577,0.583735,0.546162
1.0000,1.849288,1.562894,1.775869,1.750745,1.576581,1.544277,1.629471,1.540736,1.649044,0.562709,0.519988,0.488489
1.0012,1.846319,1.562416,1.774676,1.752228,1.577539,1.545329,1.631431,1.544183,1.650720,0.714975,0.671905,0.644169
1.0025,1.836893,1.562753,1.774629,1.755387,1.579310,1.546238,1.635116,1.550308,1.652299,1.089323,1.049658,1.022508
1.0037,1.826265,1.562465,1.773001,1.758210,1.580844,1.546288,1.638371,1.557343,1.654501,1.567714,1.534655,1.504396
1.0050,1.814876,1.561793,1.772234,1.760940,1.582710,1.544803,1.640332,1.563468,1.655886,2.058379,2.030040,1.994197
1.0063,1.808176,1.561793,1.772475,1.761321,1.583429,1.542940,1.639617,1.565337,1.655263,2.320403,2.295880,2.251945
1.0075,1.805975,1.563133,1.774676,1.760891,1.582710,1.541214,1.639375,1.565289,1.654690,2.369275,2.348467,2.301023
1.0088,1.806263,1.562943,1.775774,1.759838,1.582228,1.540595,1.638656,1.564141,1.654450,2.315760,2.297488,2.248922
1.0100,1.807268,1.562992,1.777308,1.759408,1.581846,1.540497,1.638371,1.562417,1.654593,2.204995,2.188264,2.139712
1.0112,1.810329,1.564476,1.779604,1.759695,1.581946,1.541121,1.637845,1.560694,1.654833,2.065134,2.048868,2.001281
1.0125,1.812865,1.564476,1.780801,1.759168,1.581658,1.540738,1.637318,1.558157,1.654404,1.925760,1.907400,1.861574
1.0137,1.816887,1.565384,1.780512,1.759120,1.581226,1.541406,1.636888,1.556002,1.654501,1.803402,1.781761,1.739028
1.0150,1.820953,1.567346,1.781185,1.758498,1.581514,1.541883,1.636453,1.554138,1.653924,1.668087,1.641622,1.598936
1.0163,1.829093,1.567680,1.782046,1.755387,1.580124,1.541932,1.633633,1.548444,1.651625,1.328583,1.295743,1.252131
1.0175,1.839669,1.568735,1.782188,1.752036,1.578258,1.542266,1.631001,1.542697,1.649520,0.922347,0.882562,0.842022
1.0188,1.847660,1.569070,1.782477,1.750553,1.576919,1.543559,1.629326,1.539158,1.648851,0.610964,0.568556,0.536026
1.0200,1.848570,1.569404,1.782808,1.751415,1.577445,1.544759,1.630137,1.539443,1.648564,0.551474,0.509415,0.483273
1.0212,1.843929,1.570649,1.783386,1.753759,1.577876,1.546288,1.633059,1.543176,1.649427,0.702960,0.662353,0.640732
1.0225,1.833254,1.570839,1.784820,1.757110,1.578928,1.547482,1.636792,1.548827,1.651722,1.075879,1.039703,1.019781
1.0237,1.821146,1.571461,1.786685,1.760605,1.581082,1.548348,1.640283,1.555048,1.652535,1.551023,1.521362,1.501966
1.0250,1.809324,1.574239,1.789700,1.764767,1.584243,1.549493,1.644065,1.561076,1.654067,2.035648,2.012882,1.989218
1.0263,1.801858,1.577397,1.793960,1.767878,1.586491,1.550643,1.646364,1.563134,1.653301,2.290139,2.272477,2.243232
1.0275,1.796306,1.577827,1.798746,1.771421,1.589841,1.551936,1.647223,1.562703,1.651149,2.333393,2.322467,2.289495
1.0288,1.795063,1.575818,1.799944,1.774435,1.593860,1.552320,1.646267,1.560074,1.647369,2.278351,2.272168,2.235645
1.0300,1.793005,1.572755,1.801525,1.777403,1.597880,1.552846,1.644929,1.555862,1.644354,2.167423,2.165294,2.125309
1.0312,1.794393,1.570265,1.801667,1.779699,1.600416,1.553656,1.643920,1.552651,1.643394,2.030712,2.029608,1.988596
1.0325,1.797744,1.569738,1.800805,1.780371,1.602525,1.555766,1.644736,1.552894,1.644257,1.892410,1.889531,1.848860
1.0337,1.801668,1.571461,1.800327,1.779221,1.604773,1.559212,1.647749,1.555285,1.648084,1.772001,1.765283,1.727055
1.0350,1.807123,1.573184,1.799707,1.778408,1.607452,1.563759,1.652106,1.558587,1.651482,1.636589,1.623289,1.585570
1.0362,1.819328,1.573663,1.796692,1.775296,1.608410,1.568016,1.654114,1.558157,1.653494,1.299487,1.276977,1.238795
1.0375,1.833206,1.572421,1.792190,1.772760,1.612191,1.571747,1.654979,1.557155,1.655263,0.900558,0.867970,0.831175
1.0388,1.842923,1.568257,1.785682,1.772282,1.619992,1.578114,1.658234,1.559977,1.658951,0.600962,0.563208,0.530217
1.0400,1.847853,1.564476,1.778553,1.773525,1.630567,1.586058,1.663976,1.566727,1.664024,0.552480,0.511796,0.480754
1.0413,1.848235,1.560073,1.768835,1.774005,1.643489,1.596495,1.672592,1.578260,1.670483,0.718092,0.672462,0.641176
1.0425,1.846224,1.557728,1.758161,1.774770,1.658759,1.609414,1.685371,1.595298,1.680772,1.108092,1.058129,1.025323
1.0437,1.843448,1.557344,1.748831,1.775056,1.671730,1.622195,1.699390,1.616069,1.693647,1.597881,1.546681,1.511598
1.0450,1.840242,1.556004,1.738399,1.773430,1.678618,1.631192,1.710734,1.633775,1.705133,2.095139,2.040675,1.998850
1.0462,1.844023,1.554759,1.728586,1.768596,1.678286,1.633536,1.717003,1.646698,1.714037,2.365119,2.304351,2.252657
1.0475,1.851347,1.554520,1.719109,1.761512,1.674266,1.636741,1.723609,1.658425,1.723801,2.424219,2.357030,2.301527
1.0488,1.862594,1.556866,1.712076,1.753089,1.668951,1.642965,1.734186,1.672683,1.736675,2.382459,2.306979,2.251442
1.0500,1.875131,1.559929,1.705898,1.743661,1.660768,1.651578,1.746771,1.689005,1.752038,2.283124,2.198652,2.145966
1.0513,1.887959,1.560932,1.696568,1.733612,1.651816,1.661149,1.757540,1.703269,1.765822,2.158331,2.062841,2.012335
1.0525,1.901695,1.559975,1.685416,1.723847,1.641147,1.667707,1.766156,1.715713,1.777881,2.032888,1.925392,1.874940
1.0537,1.915048,1.559592,1.674936,1.715185,1.628513,1.670962,1.771135,1.725333,1.788313,1.925857,1.805534,1.756009
1.0550,1.928256,1.556148,1.661772,1.707192,1.615973,1.670677,1.770034,1.729018,1.793197,1.801843,1.668333,1.613518
1.0562,1.944003,1.545380,1.643061,1.698290,1.602093,1.663209,1.758835,1.718390,1.789749,1.473055,1.326658,1.260607
1.0575,1.959174,1.533222,1.624969,1.692211,1.591324,1.653972,1.742372,1.701163,1.781232,1.080100,0.922040,0.846201
1.0588,1.969991,1.518050,1.606163,1.690250,1.582804,1.643206,1.723319,1.681588,1.769456,0.789240,0.624883,0.542428
1.0600,1.971951,1.502017,1.590078,1.689246,1.572229,1.629997,1.704176,1.662443,1.755482,0.748422,0.582622,0.490356
1.0613,1.967787,1.492303,1.579982,1.687091,1.559783,1.615303,1.688051,1.646504,1.743997,0.916599,0.751017,0.651993
1.0625,1.956540,1.484070,1.574188,1.686183,1.546623,1.600324,1.675176,1.635930,1.734280,1.297117,1.136653,1.031132
1.0637,1.939743,1.477800,1.572995,1.685991,1.530158,1.583044,1.662107,1.625399,1.723657,1.777261,1.628174,1.514858
1.0650,1.921366,1.476220,1.578690,1.686135,1.511400,1.563277,1.648851,1.614011,1.712361,2.251918,2.116541,1.994346
1.0662,1.903896,1.475457,1.588739,1.684603,1.487948,1.537242,1.630523,1.596300,1.697382,2.490886,2.368933,2.239587
1.0675,1.891403,1.475598,1.600658,1.684171,1.464019,1.506802,1.607786,1.572561,1.678810,2.519333,2.413079,2.278826
1.0688,1.877907,1.472489,1.612619,1.685559,1.441286,1.474357,1.583185,1.546624,1.660003,2.449776,2.360276,2.221449
1.0700,1.867859,1.469092,1.623010,1.688336,1.423144,1.444635,1.560550,1.522356,1.643874,2.328067,2.251208,2.109009
1.0713,1.858859,1.464161,1.629324,1.692308,1.408499,1.415729,1.537529,1.500152,1.629181,2.181874,2.115583,1.968651
1.0725,1.851536,1.459230,1.634204,1.697572,1.395528,1.387393,1.514990,1.477803,1.613771,2.034220,1.976557,1.825833
1.0737,1.844071,1.453825,1.639951,1.705277,1.385528,1.365906,1.496991,1.459326,1.600993,1.905367,1.855462,1.701271
1.0750,1.840529,1.451335,1.643586,1.712123,1.381936,1.355518,1.486844,1.445450,1.590893,1.759304,1.712325,1.554185
1.0762,1.843929,1.450473,1.647799,1.714945,1.386724,1.356285,1.483353,1.436352,1.584767,1.409018,1.360943,1.200682
1.0775,1.850053,1.451286,1.652537,1.715855,1.396103,1.363079,1.484116,1.431757,1.580890,0.998333,0.946989,0.790336
1.0788,1.855606,1.451479,1.655552,1.717195,1.408594,1.373899,1.488284,1.431235,1.580507,0.693608,0.641918,0.494239
1.0800,1.855701,1.455450,1.660722,1.719493,1.422047,1.385525,1.495460,1.435878,1.582852,0.641683,0.591093,0.454022
1.0813,1.851299,1.461481,1.667230,1.723417,1.435252,1.398066,1.505032,1.444395,1.586397,0.800476,0.750770,0.622535
1.0825,1.841582,1.469521,1.673308,1.728059,1.448462,1.409982,1.515656,1.455593,1.591133,1.179825,1.133871,1.012609
1.0837,1.829424,1.475552,1.681109,1.731122,1.459280,1.420847,1.526952,1.467751,1.596396,1.652630,1.614355,1.498706
1.0850,1.817652,1.484932,1.690680,1.732270,1.468133,1.430275,1.537958,1.479047,1.601469,2.126540,2.094097,1.980179
1.0862,1.809994,1.493021,1.701354,1.732988,1.476221,1.438702,1.546477,1.486653,1.604248,2.365801,2.338698,2.226280
1.0875,1.805687,1.501922,1.712984,1.734520,1.483159,1.445879,1.554282,1.492923,1.607645,2.400449,2.378578,2.271802
1.0888,1.805163,1.510489,1.723989,1.734854,1.489049,1.452771,1.561748,1.497998,1.611616,2.337127,2.319901,2.219434
1.0900,1.805498,1.517621,1.733035,1.735478,1.495843,1.460332,1.569263,1.502065,1.615780,2.220582,2.205855,2.111795
1.0913,1.807651,1.523987,1.740122,1.736818,1.504939,1.468802,1.575768,1.506229,1.619943,2.078285,2.062656,1.976356
1.0925,1.813011,1.529776,1.744429,1.737344,1.514606,1.476894,1.581273,1.509962,1.623678,1.938749,1.920106,1.840236
1.0938,1.817605,1.535135,1.747823,1.738541,1.524749,1.485364,1.586827,1.513506,1.627842,1.818697,1.795394,1.721602
1.0950,1.822582,1.539493,1.750171,1.738492,1.533463,1.493451,1.592140,1.516857,1.631096,1.679096,1.649660,1.579347
1.0962,1.831195,1.545042,1.756154,1.738732,1.540500,1.501395,1.596732,1.516857,1.632961,1.327674,1.293053,1.226110
1.0975,1.840770,1.549305,1.761276,1.739116,1.546529,1.509054,1.600847,1.516329,1.634974,0.917931,0.878079,0.818432
1.0987,1.848090,1.552558,1.764769,1.740072,1.551600,1.516472,1.604966,1.517621,1.637125,0.620381,0.577645,0.529032
1.1000,1.848476,1.554088,1.766014,1.742705,1.556578,1.522647,1.609414,1.520827,1.639900,0.571899,0.529356,0.488638
1.1013,1.844931,1.555572,1.767543,1.746389,1.561937,1.527287,1.614490,1.526903,1.642485,0.736115,0.694195,0.658958
1.1025,1.836270,1.556099,1.767637,1.750648,1.567396,1.530591,1.620425,1.535091,1.645356,1.121925,1.082428,1.049359
1.1038,1.824881,1.557056,1.767306,1.755195,1.571222,1.533177,1.625592,1.543607,1.648421,1.605480,1.572465,1.537974
1.1050,1.814781,1.558252,1.766876,1.758690,1.575241,1.534706,1.629610,1.551315,1.649857,2.087735,2.058544,2.018292
1.1062,1.807793,1.557439,1.767254,1.759933,1.577395,1.534996,1.631141,1.554041,1.650337,2.332386,2.306979,2.259028
1.1075,1.804347,1.558111,1.770700,1.760605,1.579167,1.534996,1.632103,1.554758,1.650480,2.371970,2.351898,2.300312
1.1087,1.804540,1.557439,1.773048,1.760891,1.579936,1.534464,1.631861,1.553756,1.650720,2.313779,2.297395,2.244032
1.1100,1.805352,1.557534,1.774387,1.761656,1.580938,1.534464,1.632103,1.552700,1.650909,2.201293,2.186595,2.133429
1.1113,1.807841,1.559353,1.775869,1.761369,1.581702,1.535522,1.632962,1.551649,1.651053,2.063932,2.048960,1.996746
1.1125,1.811429,1.561076,1.777066,1.761512,1.582759,1.536809,1.633966,1.550071,1.652299,1.927026,1.908729,1.859352
1.1138,1.815929,1.562655,1.776352,1.760843,1.583762,1.538393,1.634826,1.548730,1.652825,1.806487,1.785192,1.737931
1.1150,1.819999,1.562370,1.776205,1.759695,1.583474,1.539204,1.633773,1.547243,1.651579,1.665555,1.639180,1.591557
1.1162,1.829712,1.562943,1.776925,1.755962,1.581802,1.538968,1.631625,1.542126,1.650097,1.313678,1.281429,1.233668
1.1175,1.839717,1.564332,1.777739,1.753186,1.580412,1.539971,1.630137,1.536669,1.649377,0.909260,0.869608,0.825663
1.1187,1.846752,1.564955,1.777403,1.752419,1.580462,1.542173,1.629422,1.533415,1.648994,0.614763,0.573193,0.536411
1.1200,1.846705,1.564044,1.777497,1.752754,1.581176,1.543510,1.629422,1.534514,1.648994,0.571639,0.530839,0.499247
1.1213,1.843306,1.563900,1.776352,1.754526,1.581946,1.544469,1.629277,1.537434,1.650189,0.741278,0.700502,0.672176
1.1225,1.835647,1.562753,1.774146,1.757540,1.585007,1.545186,1.631001,1.543510,1.651962,1.130433,1.091332,1.063969
1.1238,1.823394,1.562704,1.773337,1.760891,1.588020,1.544945,1.633585,1.549640,1.653351,1.613046,1.580843,1.551163
1.1250,1.811382,1.561364,1.772664,1.762279,1.589121,1.543850,1.635884,1.555237,1.653924,2.091469,2.065315,2.028665
1.1262,1.805498,1.561459,1.774482,1.762852,1.589220,1.542699,1.636502,1.557246,1.653878,2.331249,2.309174,2.265193
1.1275,1.803104,1.562609,1.777214,1.762663,1.588263,1.541598,1.637221,1.557246,1.653015,2.370899,2.353289,2.306387
1.1287,1.802481,1.562416,1.778742,1.762087,1.587687,1.540639,1.637367,1.556244,1.652156,2.312318,2.297673,2.248537
1.1300,1.804110,1.564044,1.781279,1.761704,1.587781,1.540403,1.636980,1.554951,1.652202,2.199702,2.186378,2.138497
1.1313,1.805830,1.564716,1.783911,1.761944,1.588407,1.540929,1.637173,1.553944,1.652345,2.060490,2.047136,2.000629
1.1325,1.808846,1.565096,1.784053,1.761896,1.587881,1.541406,1.637463,1.552366,1.652156,1.922318,1.907152,1.862315
1.1338,1.812388,1.566534,1.783911,1.762328,1.589027,1.542699,1.638226,1.551218,1.652488,1.802233,1.783955,1.741784
1.1350,1.818228,1.568735,1.783864,1.760986,1.588451,1.542940,1.637076,1.548681,1.651533,1.659709,1.635253,1.593246
1.1362,1.827752,1.569977,1.785203,1.758115,1.586779,1.542458,1.634111,1.542891,1.649520,1.306696,1.274875,1.233816
1.1375,1.838471,1.570504,1.784915,1.755004,1.585965,1.543083,1.632054,1.537671,1.647701,0.897927,0.859035,0.821514
1.1387,1.845936,1.571894,1.785492,1.754717,1.585866,1.545186,1.631625,1.534994,1.647415,0.608366,0.566825,0.537538
1.1400,1.846512,1.570219,1.784247,1.755530,1.586253,1.546479,1.631576,1.535710,1.647558,0.569918,0.528274,0.503485
1.1413,1.843211,1.569309,1.781899,1.756535,1.587494,1.547581,1.632291,1.538915,1.648611,0.742674,0.701646,0.679407
1.1425,1.834929,1.568303,1.779556,1.759168,1.589359,1.548583,1.635213,1.544803,1.650480,1.133453,1.094207,1.072297
1.1438,1.824495,1.567969,1.777644,1.761896,1.591374,1.548967,1.637845,1.550884,1.652345,1.617657,1.584924,1.560409
1.1450,1.814351,1.568686,1.777261,1.765007,1.592233,1.547055,1.639660,1.555716,1.653208,2.092931,2.064696,2.034355
1.1462,1.808941,1.568398,1.777545,1.764240,1.590272,1.543702,1.638752,1.556815,1.652248,2.329269,2.303856,2.265726
1.1475,1.806215,1.568398,1.780082,1.763524,1.589315,1.541740,1.637990,1.556244,1.651389,2.364826,2.344540,2.303039
1.1487,1.803534,1.568637,1.783575,1.763524,1.590079,1.541691,1.639182,1.556196,1.651482,2.303582,2.287873,2.245603
1.1500,1.804540,1.570026,1.785970,1.763044,1.591419,1.542699,1.639708,1.555382,1.652631,2.190707,2.176547,2.134615
1.1513,1.809087,1.570649,1.786496,1.761944,1.592570,1.543417,1.640095,1.554424,1.653301,2.054548,2.038728,1.998465
1.1525,1.812675,1.571989,1.786496,1.761656,1.592327,1.544419,1.638946,1.553034,1.653591,1.916960,1.897878,1.859707
1.1538,1.816792,1.572421,1.786685,1.760986,1.592188,1.545236,1.638849,1.551552,1.654021,1.797557,1.775825,1.739413
1.1550,1.820429,1.573139,1.787741,1.759933,1.591230,1.545285,1.637367,1.549112,1.653591,1.652500,1.625824,1.588534
1.1562,1.829424,1.573761,1.788649,1.757110,1.589409,1.544611,1.634348,1.543273,1.651436,1.297799,1.265879,1.228748
1.1575,1.840001,1.574957,1.788649,1.754334,1.586873,1.544326,1.630711,1.536717,1.649187,0.890913,0.852048,0.817869
1.1587,1.846082,1.574000,1.788077,1.753232,1.586536,1.545570,1.629997,1.533701,1.648901,0.602261,0.561662,0.534544
1.1600,1.845794,1.572755,1.786065,1.753232,1.586779,1.546288,1.630615,1.534083,1.649331,0.566119,0.525677,0.502863
1.1612,1.842107,1.571320,1.784342,1.755339,1.588069,1.546912,1.631716,1.537197,1.649857,0.741830,0.701460,0.681956
1.1625,1.833159,1.570026,1.782666,1.757253,1.590461,1.547581,1.633966,1.543418,1.651579,1.132836,1.095413,1.075409
1.1638,1.821722,1.568257,1.780849,1.760651,1.591851,1.546956,1.636695,1.549829,1.653254,1.618404,1.587490,1.563906
1.1650,1.810427,1.567680,1.780465,1.763524,1.593240,1.545953,1.638704,1.555334,1.654261,2.091729,2.066706,2.036133
1.1663,1.803869,1.568975,1.781421,1.763859,1.592997,1.543850,1.638607,1.557198,1.653734,2.326346,2.304536,2.266378
1.1675,1.801811,1.568113,1.782377,1.763714,1.592997,1.542316,1.638274,1.557198,1.653444,2.363268,2.346024,2.304728
1.1687,1.801763,1.569404,1.785109,1.762949,1.593096,1.541691,1.638033,1.556961,1.652585,2.303517,2.289511,2.246285
1.1700,1.803341,1.569787,1.786543,1.762231,1.593429,1.542266,1.637318,1.555813,1.652825,2.190999,2.177939,2.135445
1.1712,1.806551,1.570170,1.787741,1.762231,1.593811,1.542650,1.636888,1.553610,1.652968,2.053638,2.040119,1.998406
1.1725,1.810234,1.570744,1.787977,1.762663,1.593766,1.543510,1.636888,1.551746,1.653638,1.915141,1.899053,1.859144
1.1738,1.814734,1.572038,1.787835,1.762949,1.594098,1.544852,1.637318,1.550163,1.654787,1.797070,1.777030,1.739887
1.1750,1.818946,1.571559,1.786354,1.761944,1.593716,1.545668,1.635884,1.546958,1.653254,1.652923,1.627123,1.587882
1.1763,1.827989,1.571559,1.786112,1.759503,1.592858,1.546096,1.633488,1.541118,1.651339,1.297864,1.266683,1.227118
1.1775,1.837994,1.571559,1.786160,1.756775,1.591419,1.546956,1.631001,1.535807,1.650097,0.891043,0.853130,0.815942
1.1787,1.845936,1.572038,1.785540,1.755482,1.591275,1.548731,1.630330,1.533604,1.650383,0.607295,0.566299,0.536797
1.1800,1.846607,1.571032,1.784962,1.755579,1.591086,1.549542,1.631141,1.534945,1.650429,0.573718,0.532725,0.508079
1.1812,1.842253,1.568735,1.782330,1.756105,1.591851,1.549400,1.632720,1.538059,1.651579,0.751182,0.711075,0.689158
1.1825,1.833877,1.568735,1.780896,1.759217,1.593910,1.549925,1.636169,1.543893,1.653444,1.144591,1.106944,1.085782
1.1838,1.823252,1.569119,1.779651,1.762517,1.596252,1.550786,1.639375,1.551218,1.655600,1.628503,1.597537,1.573894
1.1850,1.813058,1.569119,1.778311,1.764145,1.597592,1.550501,1.641959,1.557392,1.657132,2.100367,2.073229,2.043364
1.1863,1.807075,1.570026,1.779893,1.763954,1.597974,1.548682,1.642485,1.559164,1.656606,2.330340,2.306360,2.268957
1.1875,1.804970,1.570649,1.782430,1.763954,1.597835,1.546479,1.642582,1.559018,1.655886,2.364924,2.345004,2.304728
1.1887,1.803676,1.569692,1.784389,1.763284,1.597021,1.545236,1.642007,1.558539,1.656029,2.302771,2.286760,2.244951
1.1900,1.804777,1.569070,1.785298,1.762279,1.596158,1.544518,1.641051,1.556724,1.655170,2.188531,2.174600,2.131947
1.1912,1.807123,1.570409,1.787068,1.762517,1.596877,1.544660,1.641196,1.555285,1.655553,2.050456,2.035976,1.995175
1.1925,1.810187,1.571078,1.787741,1.762757,1.597835,1.546430,1.640955,1.553944,1.656172,1.912836,1.896178,1.857277
1.1938,1.814304,1.571654,1.788077,1.762806,1.598217,1.548249,1.641336,1.552511,1.656749,1.793108,1.774248,1.736716
1.1950,1.818370,1.572323,1.787068,1.760986,1.598406,1.549109,1.640095,1.550211,1.655503,1.647142,1.621434,1.583140
1.1963,1.829042,1.572562,1.786543,1.757732,1.596634,1.548249,1.637270,1.543704,1.652871,1.289486,1.256728,1.219027
1.1975,1.840672,1.573712,1.786590,1.754526,1.594481,1.548632,1.634256,1.537434,1.651196,0.882762,0.843268,0.808326
1.1987,1.846417,1.572899,1.786065,1.753186,1.594386,1.550167,1.634160,1.535425,1.651099,0.603463,0.562002,0.534337
1.2000,1.846654,1.572133,1.784053,1.753232,1.594198,1.551410,1.635213,1.536814,1.651533,0.574724,0.532540,0.509798
1.2012,1.842442,1.571127,1.782477,1.755004,1.594868,1.552462,1.636980,1.540019,1.652585,0.755696,0.713765,0.694285
1.2025,1.833352,1.571032,1.782046,1.758547,1.597260,1.553087,1.640144,1.546909,1.654787,1.149917,1.111736,1.092094
1.2038,1.822677,1.569260,1.779987,1.761991,1.600034,1.553563,1.643345,1.553707,1.657372,1.633958,1.602236,1.579584
1.2050,1.811863,1.569070,1.778884,1.764672,1.600942,1.551887,1.644784,1.558830,1.657945,2.104523,2.078144,2.047632
1.2063,1.805447,1.568637,1.778937,1.765820,1.600803,1.549542,1.643205,1.559498,1.656509,2.332288,2.309452,2.270824
1.2075,1.802911,1.567107,1.781327,1.765868,1.601373,1.548632,1.642104,1.558733,1.655646,2.365833,2.348405,2.305824
1.2087,1.802434,1.568018,1.783480,1.764958,1.601711,1.547581,1.641626,1.557343,1.654593,2.303485,2.288986,2.245188
1.2100,1.804729,1.568591,1.784295,1.764240,1.602331,1.547772,1.641862,1.555479,1.654690,2.189992,2.175682,2.132511
1.2112,1.808369,1.569260,1.785251,1.763714,1.602619,1.548391,1.641529,1.553993,1.654690,2.052534,2.037769,1.996065
1.2125,1.811335,1.570265,1.787263,1.763092,1.602669,1.549301,1.642340,1.552129,1.655313,1.914849,1.897971,1.858137
1.2138,1.814493,1.571939,1.786785,1.762328,1.602763,1.550402,1.642630,1.550976,1.655886,1.796355,1.775979,1.739206
1.2150,1.818800,1.572850,1.787357,1.761609,1.601949,1.550736,1.641578,1.549112,1.654690,1.648052,1.622207,1.584385
1.2163,1.830382,1.573568,1.787068,1.758882,1.600609,1.550451,1.639182,1.543273,1.652918,1.289096,1.256604,1.219946
1.2175,1.840001,1.575435,1.787215,1.756392,1.599269,1.551076,1.635884,1.537719,1.651053,0.882340,0.842619,0.809452
1.2188,1.846319,1.575769,1.787693,1.755195,1.598932,1.552462,1.634874,1.535473,1.650766,0.605086,0.563053,0.537360
1.2200,1.847565,1.574957,1.787068,1.755101,1.599413,1.553898,1.635594,1.536766,1.650813,0.578101,0.536033,0.515903
1.2212,1.843018,1.574239,1.785682,1.755627,1.600083,1.554999,1.637845,1.540068,1.652008,0.759105,0.717753,0.700419
1.2225,1.833782,1.573234,1.784200,1.758593,1.602281,1.555284,1.640477,1.546290,1.653638,1.156217,1.118042,1.100807
1.2237,1.822152,1.571939,1.782572,1.762136,1.604296,1.555475,1.642340,1.551983,1.655789,1.642856,1.611418,1.591142
1.2250,1.811192,1.571176,1.781469,1.764289,1.606306,1.554473,1.644494,1.557774,1.657372,2.110596,2.083895,2.057145
1.2263,1.805305,1.571032,1.781899,1.764529,1.606589,1.553180,1.644639,1.559643,1.656652,2.333685,2.311121,2.276099
1.2275,1.804110,1.571078,1.783433,1.764002,1.606018,1.551268,1.644688,1.559880,1.655936,2.366418,2.347539,2.309736
1.2288,1.804252,1.571894,1.785345,1.763235,1.606450,1.550167,1.644113,1.558490,1.655936,2.302576,2.286636,2.247530
1.2300,1.805880,1.572899,1.787741,1.763235,1.607308,1.550358,1.643683,1.557343,1.656366,2.187979,2.173301,2.134970
1.2312,1.807746,1.574285,1.790373,1.763332,1.607790,1.551312,1.643780,1.555813,1.657229,2.050813,2.035358,1.998287
1.2325,1.811863,1.575340,1.790325,1.763141,1.607978,1.552320,1.644306,1.554187,1.657608,1.913420,1.895559,1.860211
1.2337,1.816075,1.575481,1.789269,1.761801,1.607740,1.553656,1.644355,1.552220,1.657608,1.795641,1.773846,1.740213
1.2350,1.821959,1.577014,1.788602,1.760030,1.607790,1.553898,1.643012,1.550308,1.657229,1.645746,1.617786,1.582992
1.2363,1.831818,1.576965,1.788460,1.756824,1.606063,1.553465,1.640186,1.544614,1.655313,1.284550,1.250359,1.216627
1.2375,1.841535,1.577876,1.789416,1.754574,1.605204,1.554758,1.638607,1.539206,1.653444,0.877307,0.836807,0.806370
1.2388,1.847853,1.576441,1.788266,1.753616,1.605586,1.556100,1.637796,1.536814,1.653065,0.604015,0.561816,0.538219
1.2400,1.848953,1.576726,1.787741,1.754142,1.606544,1.558160,1.639950,1.538630,1.654261,0.579173,0.536590,0.518837
1.2412,1.844931,1.576824,1.787068,1.756200,1.607934,1.560691,1.643012,1.542988,1.656172,0.763002,0.720411,0.706643
1.2425,1.836941,1.577348,1.785203,1.758498,1.610802,1.561984,1.646890,1.549877,1.657848,1.160958,1.119897,1.106794
1.2437,1.827799,1.576726,1.783192,1.761418,1.613626,1.562559,1.650430,1.556724,1.659620,1.649286,1.613520,1.598225
1.2450,1.815641,1.575625,1.783050,1.763762,1.615591,1.562176,1.651961,1.562320,1.660862,2.112707,2.082782,2.059812
1.2463,1.809181,1.575101,1.783959,1.764240,1.615591,1.560215,1.651149,1.562945,1.659380,2.331574,2.305680,2.274795
1.2475,1.806500,1.576536,1.785876,1.762852,1.615204,1.558253,1.650575,1.562514,1.658471,2.362781,2.341233,2.307543
1.2488,1.806981,1.577158,1.788361,1.762709,1.615397,1.557009,1.649715,1.561986,1.658088,2.298647,2.279773,2.245188
1.2500,1.808846,1.577492,1.789369,1.761704,1.616261,1.556719,1.648421,1.560311,1.657608,2.183920,2.165727,2.131888
1.2512,1.811575,1.577781,1.791045,1.762422,1.617025,1.557820,1.648469,1.558108,1.657608,2.046429,2.028185,1.995205
1.2525,1.814541,1.578593,1.792479,1.762471,1.618270,1.559787,1.648947,1.556384,1.657418,1.908679,1.888201,1.857366
1.2537,1.817845,1.579265,1.792237,1.762566,1.619511,1.561508,1.649377,1.554569,1.657801,1.790380,1.766921,1.737635
1.2550,1.822440,1.579599,1.791759,1.761131,1.619322,1.562559,1.648469,1.551886,1.657082,1.637953,1.608945,1.578221
1.2563,1.832011,1.580028,1.791234,1.757494,1.617888,1.562894,1.645311,1.545810,1.655410,1.275652,1.240312,1.210255
1.2575,1.842777,1.580556,1.790661,1.754239,1.616931,1.563376,1.641814,1.539685,1.653638,0.868637,0.826110,0.799109
1.2588,1.849095,1.580939,1.790036,1.753472,1.616975,1.564811,1.640332,1.536954,1.653827,0.599631,0.554768,0.535256
1.2600,1.850246,1.580651,1.789128,1.754477,1.618509,1.565956,1.640670,1.538296,1.654404,0.578621,0.533807,0.519282
1.2612,1.846512,1.579982,1.787310,1.755962,1.620806,1.567299,1.642389,1.542126,1.655360,0.767321,0.722112,0.710703
1.2625,1.838423,1.578737,1.785345,1.759311,1.623148,1.568208,1.645595,1.548730,1.657515,1.169011,1.126235,1.114974
1.2637,1.828517,1.579406,1.783817,1.763189,1.627123,1.569402,1.649952,1.556815,1.660290,1.658216,1.621187,1.607976
1.2650,1.817652,1.579838,1.783050,1.765533,1.630091,1.570361,1.653400,1.563037,1.662588,2.120045,2.087048,2.066747
1.2663,1.811717,1.578927,1.783817,1.765677,1.631381,1.569359,1.654163,1.565143,1.662349,2.334432,2.305309,2.277107
1.2675,1.810376,1.580077,1.785156,1.765102,1.632245,1.569019,1.654544,1.565482,1.662109,2.363787,2.338141,2.307780
1.2688,1.811047,1.581083,1.787599,1.764432,1.632150,1.568542,1.654834,1.565003,1.661245,2.299134,2.276682,2.245218
1.2700,1.812675,1.581178,1.789511,1.763524,1.632339,1.568876,1.654114,1.563037,1.661439,2.184082,2.162728,2.131029
1.2712,1.815164,1.580651,1.789464,1.763619,1.633535,1.569501,1.653733,1.561701,1.662012,2.046949,2.024939,1.994583
1.2725,1.819616,1.581368,1.789511,1.763762,1.635068,1.570219,1.653352,1.559977,1.662445,1.910011,1.885481,1.856358
1.2737,1.823923,1.582279,1.789033,1.763859,1.636601,1.571703,1.653636,1.558157,1.662875,1.791614,1.763490,1.736479
1.2750,1.827941,1.583236,1.789128,1.762231,1.637028,1.572323,1.652251,1.556147,1.662538,1.637206,1.602762,1.574664
1.2763,1.837611,1.583668,1.789894,1.758928,1.636358,1.573714,1.650575,1.550976,1.660673,1.272145,1.232892,1.206195
1.2775,1.846942,1.583809,1.790373,1.756775,1.636071,1.574958,1.648996,1.546144,1.658854,0.864480,0.819216,0.794900
1.2788,1.853019,1.583907,1.789606,1.755722,1.636840,1.577160,1.648947,1.544469,1.658900,0.598657,0.551707,0.534307
1.2800,1.854505,1.583426,1.787788,1.756489,1.638562,1.579072,1.650285,1.545956,1.659477,0.583362,0.535168,0.523105
1.2812,1.850246,1.582567,1.786354,1.758833,1.641147,1.580365,1.652487,1.549829,1.660100,0.775082,0.726934,0.718023
1.2825,1.841918,1.581751,1.784200,1.761944,1.643921,1.581751,1.655645,1.555716,1.662349,1.178915,1.132974,1.123509
1.2837,1.831818,1.580985,1.781616,1.764624,1.646839,1.582661,1.659190,1.563085,1.664264,1.669971,1.630276,1.618496
1.2850,1.820906,1.580507,1.780991,1.766443,1.649330,1.582568,1.661629,1.568925,1.665409,2.131671,2.096292,2.077239
1.2862,1.816457,1.580985,1.782430,1.766681,1.650476,1.581225,1.662252,1.570266,1.664883,2.344531,2.311214,2.285968
1.2875,1.815164,1.581561,1.783050,1.766825,1.651722,1.580415,1.661822,1.570697,1.664643,2.373724,2.344046,2.315693
1.2888,1.815641,1.581991,1.784678,1.766203,1.652585,1.580508,1.662010,1.569786,1.664694,2.309785,2.282834,2.252657
1.2900,1.816647,1.581368,1.786254,1.765677,1.654546,1.581225,1.661677,1.568445,1.664837,2.194538,2.168880,2.138408
1.2913,1.818512,1.582325,1.787930,1.765293,1.656029,1.582135,1.660431,1.566102,1.665552,2.057827,2.032699,2.002762
1.2925,1.821912,1.581846,1.786879,1.764958,1.656411,1.583094,1.659287,1.563565,1.666369,1.923714,1.895807,1.867620
1.2937,1.825358,1.582086,1.785492,1.764386,1.657037,1.584431,1.658422,1.562175,1.667085,1.808500,1.777494,1.750793
1.2950,1.831483,1.583907,1.784962,1.763332,1.657225,1.585104,1.656655,1.559304,1.666369,1.655261,1.617632,1.589364
1.2962,1.840624,1.584002,1.785393,1.760556,1.657419,1.585247,1.654066,1.553707,1.664550,1.290914,1.248072,1.220894
1.2975,1.851489,1.584625,1.785062,1.757494,1.657081,1.586156,1.651912,1.547965,1.662921,0.885782,0.834890,0.810874
1.2988,1.859100,1.585198,1.784053,1.756297,1.656987,1.587926,1.652487,1.545762,1.662972,0.622557,0.568711,0.552534
1.3000,1.859289,1.583619,1.782714,1.756678,1.658664,1.589745,1.653975,1.547771,1.663687,0.610574,0.556839,0.545302
1.3013,1.855078,1.582325,1.781279,1.758547,1.660818,1.591849,1.657085,1.552220,1.665077,0.805931,0.752903,0.744548
